Data from 0CX4_Units14_1.txt Node
Standard Time	Epoch Time	Value
HH:MM:SS:000	(msec since 01/01/1900)
Spectrometer: FLMT01689
Trigger mode: 0
Integration Time (sec): 8.500000E-2
Scans to average: 3
Electric dark correction enabled: true
Nonlinearity correction enabled: false
Boxcar width: 3
XAxis mode: Time
Number of Pixels in Spectrum: 3648
>>>>>Begin Spectral Data<<<<<
16:38:52.613	1656707932613.000613000	0.12
16:38:52.865	1656707932865.000865000	0.12
16:38:53.120	1656707933120.000120000	0.12
16:38:53.376	1656707933376.000376000	0.12
16:38:53.631	1656707933631.000631000	0.12
16:38:53.887	1656707933887.000887000	0.12
16:38:54.141	1656707934141.000141000	0.12
16:38:54.397	1656707934397.000397000	0.12
16:38:54.650	1656707934650.000650000	0.12
16:38:54.906	1656707934906.000906000	0.12
16:38:55.201	1656707935201.000201000	0.12
16:38:55.417	1656707935417.000417000	0.12
16:38:55.671	1656707935671.000671000	0.12
16:38:55.931	1656707935931.000931000	0.12
16:38:56.183	1656707936183.000183000	0.12
16:38:56.442	1656707936442.000442000	0.12
16:38:56.692	1656707936692.000692000	0.12
16:38:56.946	1656707936946.000946000	0.12
16:38:57.201	1656707937201.000201000	0.12
16:38:57.455	1656707937455.000455000	0.12
16:38:57.711	1656707937711.000711000	0.12
16:38:57.966	1656707937966.000966000	0.12
16:38:58.221	1656707938221.000221000	0.12
16:38:58.478	1656707938478.000478000	0.12
16:38:58.731	1656707938731.000731000	0.12
16:38:58.986	1656707938986.000986000	0.12
16:38:59.241	1656707939241.000241000	0.12
16:38:59.496	1656707939496.000496000	0.12
16:38:59.751	1656707939751.000751000	0.12
16:39:00.006	1656707940006.000006000	0.12
16:39:00.261	1656707940261.000261000	0.12
16:39:00.521	1656707940521.000521000	0.12
16:39:00.771	1656707940771.000771000	0.12
16:39:01.026	1656707941026.000026000	0.12
16:39:01.281	1656707941281.000281000	0.12
16:39:01.536	1656707941536.000536000	0.12
16:39:01.791	1656707941791.000791000	0.12
16:39:02.046	1656707942046.000046000	0.12
16:39:02.301	1656707942301.000301000	0.12
16:39:02.559	1656707942559.000559000	0.12
16:39:02.811	1656707942811.000811000	0.12
16:39:03.066	1656707943066.000066000	0.12
16:39:03.321	1656707943321.000321000	0.12
16:39:03.576	1656707943576.000576000	0.12
16:39:03.831	1656707943831.000831000	0.12
16:39:04.086	1656707944086.000086000	0.12
16:39:04.341	1656707944341.000341000	0.12
16:39:04.599	1656707944599.000599000	0.12
16:39:04.854	1656707944854.000854000	0.12
16:39:05.106	1656707945106.000106000	0.12
16:39:05.361	1656707945361.000361000	0.12
16:39:05.616	1656707945616.000616000	0.12
16:39:05.871	1656707945871.000871000	0.12
16:39:06.126	1656707946126.000126000	0.12
16:39:06.381	1656707946381.000381000	0.12
16:39:06.640	1656707946640.000640000	0.12
16:39:06.897	1656707946897.000897000	0.12
16:39:07.147	1656707947147.000147000	0.12
16:39:07.401	1656707947401.000401000	0.12
16:39:07.656	1656707947656.000656000	0.12
16:39:07.912	1656707947912.000912000	0.12
16:39:08.167	1656707948167.000167000	0.12
16:39:08.421	1656707948421.000421000	0.12
16:39:08.694	1656707948694.000694000	0.12
16:39:08.931	1656707948931.000931000	0.12
16:39:09.186	1656707949186.000186000	0.12
16:39:09.442	1656707949442.000442000	0.12
16:39:09.697	1656707949697.000697000	0.12
16:39:09.951	1656707949951.000951000	0.12
16:39:10.207	1656707950207.000207000	0.12
16:39:10.461	1656707950461.000461000	0.12
16:39:10.717	1656707950717.000717000	0.12
16:39:10.971	1656707950971.000971000	0.12
16:39:11.226	1656707951226.000226000	0.12
16:39:11.478	1656707951478.000478000	0.12
16:39:11.736	1656707951736.000736000	0.12
16:39:11.991	1656707951991.000991000	0.12
16:39:12.246	1656707952246.000246000	0.12
16:39:12.501	1656707952501.000501000	0.12
16:39:12.758	1656707952758.000758000	0.12
16:39:13.012	1656707953012.000012000	0.12
16:39:13.266	1656707953266.000266000	0.12
16:39:13.520	1656707953520.000520000	0.12
16:39:13.776	1656707953776.000776000	0.12
16:39:14.031	1656707954031.000031000	0.12
16:39:14.286	1656707954286.000286000	0.12
16:39:14.541	1656707954541.000541000	0.12
16:39:14.797	1656707954797.000797000	0.12
16:39:15.051	1656707955051.000051000	0.12
16:39:15.306	1656707955306.000306000	0.12
16:39:15.561	1656707955561.000561000	0.12
16:39:15.903	1656707955903.000903000	0.12
16:39:16.156	1656707956156.000156000	0.12
16:39:16.411	1656707956411.000411000	0.12
16:39:16.666	1656707956666.000666000	0.12
16:39:16.921	1656707956921.000921000	0.12
16:39:17.176	1656707957176.000176000	0.12
16:39:17.431	1656707957431.000431000	0.12
16:39:17.686	1656707957686.000686000	0.12
16:39:17.941	1656707957941.000941000	0.12
16:39:18.196	1656707958196.000196000	0.12
16:39:18.451	1656707958451.000451000	0.12
16:39:18.706	1656707958706.000706000	0.12
16:39:18.961	1656707958961.000961000	0.13
16:39:19.216	1656707959216.000216000	0.12
16:39:19.477	1656707959477.000477000	0.12
16:39:19.726	1656707959726.000726000	0.12
16:39:19.981	1656707959981.000981000	0.12
16:39:20.242	1656707960242.000242000	0.12
16:39:20.491	1656707960491.000491000	0.13
16:39:20.752	1656707960752.000752000	0.12
16:39:21.001	1656707961001.000001000	0.12
16:39:21.256	1656707961256.000256000	0.12
16:39:21.511	1656707961511.000511000	0.12
16:39:21.766	1656707961766.000766000	0.12
16:39:22.021	1656707962021.000021000	0.12
16:39:22.278	1656707962278.000278000	0.12
16:39:22.531	1656707962531.000531000	0.12
16:39:22.787	1656707962787.000787000	0.12
16:39:23.041	1656707963041.000041000	0.12
16:39:23.296	1656707963296.000296000	0.12
16:39:23.552	1656707963552.000552000	0.12
16:39:23.806	1656707963806.000806000	0.12
16:39:24.062	1656707964062.000062000	0.12
16:39:24.316	1656707964316.000316000	0.12
16:39:24.577	1656707964577.000577000	0.12
16:39:24.832	1656707964832.000832000	0.12
16:39:25.081	1656707965081.000081000	0.12
16:39:25.336	1656707965336.000336000	0.12
16:39:25.592	1656707965592.000592000	0.12
16:39:25.847	1656707965847.000847000	0.12
16:39:26.101	1656707966101.000101000	0.12
16:39:26.357	1656707966357.000357000	0.12
16:39:26.616	1656707966616.000616000	0.12
16:39:26.869	1656707966869.000869000	0.12
16:39:27.121	1656707967121.000121000	0.12
16:39:27.376	1656707967376.000376000	0.12
16:39:27.631	1656707967631.000631000	0.12
16:39:27.886	1656707967886.000886000	0.12
16:39:28.141	1656707968141.000141000	0.12
16:39:28.397	1656707968397.000397000	0.12
16:39:28.651	1656707968651.000651000	0.12
16:39:28.912	1656707968912.000912000	0.12
16:39:29.161	1656707969161.000161000	0.12
16:39:29.416	1656707969416.000416000	0.12
16:39:29.671	1656707969671.000671000	0.12
16:39:29.926	1656707969926.000926000	0.12