Data from 1GT42_Units14_2.txt Node
Standard Time	Epoch Time	Value
HH:MM:SS:000	(msec since 01/01/1900)
Spectrometer: FLMT01689
Trigger mode: 0
Integration Time (sec): 8.500000E-2
Scans to average: 3
Electric dark correction enabled: true
Nonlinearity correction enabled: false
Boxcar width: 3
XAxis mode: Time
Number of Pixels in Spectrum: 3648
>>>>>Begin Spectral Data<<<<<
14:39:44.244	1656700784244.000244000	0.12
14:39:44.474	1656700784474.000474000	0.12
14:39:44.724	1656700784724.000724000	0.12
14:39:44.979	1656700784979.000979000	0.12
14:39:45.234	1656700785234.000234000	0.12
14:39:45.489	1656700785489.000489000	0.12
14:39:45.744	1656700785744.000744000	0.12
14:39:46.002	1656700786002.000002000	0.11
14:39:46.254	1656700786254.000254000	0.12
14:39:46.510	1656700786510.000510000	0.12
14:39:46.764	1656700786764.000764000	0.12
14:39:47.024	1656700787024.000024000	0.12
14:39:47.273	1656700787273.000273000	0.12
14:39:47.529	1656700787529.000529000	0.12
14:39:47.784	1656700787784.000784000	0.12
14:39:48.039	1656700788039.000039000	0.13
14:39:48.295	1656700788295.000295000	0.12
14:39:48.549	1656700788549.000549000	0.12
14:39:48.890	1656700788890.000890000	0.12
14:39:49.144	1656700789144.000144000	0.12
14:39:49.399	1656700789399.000399000	0.12
14:39:49.655	1656700789655.000655000	0.12
14:39:49.909	1656700789909.000909000	0.12
14:39:50.164	1656700790164.000164000	0.12
14:39:50.421	1656700790421.000421000	0.12
14:39:50.674	1656700790674.000674000	0.12
14:39:50.930	1656700790930.000930000	0.12
14:39:51.184	1656700791184.000184000	0.12
14:39:51.439	1656700791439.000439000	0.12
14:39:51.694	1656700791694.000694000	0.12
14:39:51.949	1656700791949.000949000	0.12
14:39:52.204	1656700792204.000204000	0.12
14:39:52.459	1656700792459.000459000	0.12
14:39:52.714	1656700792714.000714000	0.12
14:39:52.970	1656700792970.000970000	0.12
14:39:53.224	1656700793224.000224000	0.12
14:39:53.479	1656700793479.000479000	0.12
14:39:53.738	1656700793738.000738000	0.12
14:39:53.989	1656700793989.000989000	0.12
14:39:54.246	1656700794246.000246000	0.12
14:39:54.500	1656700794500.000500000	0.12
14:39:54.754	1656700794754.000754000	0.12
14:39:55.009	1656700795009.000009000	0.12
14:39:55.267	1656700795267.000267000	0.12
14:39:55.523	1656700795523.000523000	0.12
14:39:55.774	1656700795774.000774000	0.12
14:39:56.030	1656700796030.000030000	0.12
14:39:56.284	1656700796284.000284000	0.12
14:39:56.540	1656700796540.000540000	0.12
14:39:56.805	1656700796805.000805000	0.12
14:39:57.049	1656700797049.000049000	0.12
14:39:57.304	1656700797304.000304000	0.12
14:39:57.559	1656700797559.000559000	0.12
14:39:57.814	1656700797814.000814000	0.12
14:39:58.069	1656700798069.000069000	0.12
14:39:58.324	1656700798324.000324000	0.12
14:39:58.579	1656700798579.000579000	0.12
14:39:58.834	1656700798834.000834000	0.12
14:39:59.089	1656700799089.000089000	0.12
14:39:59.344	1656700799344.000344000	0.12
14:39:59.602	1656700799602.000602000	0.12
14:39:59.854	1656700799854.000854000	0.12
14:40:00.110	1656700800110.000110000	0.12
14:40:00.364	1656700800364.000364000	0.12
14:40:00.619	1656700800619.000619000	0.12
14:40:00.874	1656700800874.000874000	0.12
14:40:01.129	1656700801129.000129000	0.12
14:40:01.384	1656700801384.000384000	0.12
14:40:01.639	1656700801639.000639000	0.12
14:40:01.894	1656700801894.000894000	0.12
14:40:02.149	1656700802149.000149000	0.12
14:40:02.404	1656700802404.000404000	0.12
14:40:02.659	1656700802659.000659000	0.12
14:40:02.914	1656700802914.000914000	0.12
14:40:03.169	1656700803169.000169000	0.12
14:40:03.425	1656700803425.000425000	0.12
14:40:03.679	1656700803679.000679000	0.12
14:40:03.936	1656700803936.000936000	0.12
14:40:04.189	1656700804189.000189000	0.12
14:40:04.444	1656700804444.000444000	0.12
14:40:04.705	1656700804705.000705000	0.12
14:40:04.955	1656700804955.000955000	0.12
14:40:05.211	1656700805211.000211000	0.12
14:40:05.464	1656700805464.000464000	0.12
14:40:05.719	1656700805719.000719000	0.12
14:40:05.974	1656700805974.000974000	0.12
14:40:06.229	1656700806229.000229000	0.12
14:40:06.490	1656700806490.000490000	0.12
14:40:06.740	1656700806740.000740000	0.12
14:40:06.995	1656700806995.000995000	0.12
14:40:07.249	1656700807249.000249000	0.12
14:40:07.504	1656700807504.000504000	0.12
14:40:07.759	1656700807759.000759000	0.12
14:40:08.014	1656700808014.000014000	0.12
14:40:08.275	1656700808275.000275000	0.12
14:40:08.527	1656700808527.000527000	0.12
14:40:08.779	1656700808779.000779000	0.12
14:40:09.034	1656700809034.000034000	0.12
14:40:09.289	1656700809289.000289000	0.12
14:40:09.544	1656700809544.000544000	0.12
14:40:09.799	1656700809799.000799000	0.12
14:40:10.054	1656700810054.000054000	0.12
14:40:10.309	1656700810309.000309000	0.12
14:40:10.571	1656700810571.000571000	0.12
14:40:10.820	1656700810820.000820000	0.12
14:40:11.074	1656700811074.000074000	0.12
14:40:11.329	1656700811329.000329000	0.12
14:40:11.584	1656700811584.000584000	0.12
14:40:11.839	1656700811839.000839000	0.12
14:40:12.094	1656700812094.000094000	0.12
14:40:12.349	1656700812349.000349000	0.12
14:40:12.610	1656700812610.000610000	0.12
14:40:12.859	1656700812859.000859000	0.12
14:40:13.115	1656700813115.000115000	0.12
14:40:13.369	1656700813369.000369000	0.12
14:40:13.625	1656700813625.000625000	0.12
14:40:13.879	1656700813879.000879000	0.12
14:40:14.135	1656700814135.000135000	0.12
14:40:14.389	1656700814389.000389000	0.12
14:40:14.649	1656700814649.000649000	0.12
14:40:14.900	1656700814900.000900000	0.12
14:40:15.154	1656700815154.000154000	0.12
14:40:15.409	1656700815409.000409000	0.12
14:40:15.664	1656700815664.000664000	0.12
14:40:15.919	1656700815919.000919000	0.12
14:40:16.174	1656700816174.000174000	0.12
14:40:16.429	1656700816429.000429000	0.12
14:40:16.686	1656700816686.000686000	0.12
14:40:16.945	1656700816945.000945000	0.12
14:40:17.194	1656700817194.000194000	0.12
14:40:17.449	1656700817449.000449000	0.12
14:40:17.704	1656700817704.000704000	0.12
14:40:17.959	1656700817959.000959000	0.12
14:40:18.215	1656700818215.000215000	0.12
14:40:18.469	1656700818469.000469000	0.12
14:40:18.730	1656700818730.000730000	0.12
14:40:18.980	1656700818980.000980000	0.12
14:40:19.234	1656700819234.000234000	0.12
14:40:19.489	1656700819489.000489000	0.12
14:40:19.748	1656700819748.000748000	0.12
14:40:20.004	1656700820004.000004000	0.12
14:40:20.255	1656700820255.000255000	0.12
14:40:20.510	1656700820510.000510000	0.12
14:40:20.765	1656700820765.000765000	0.12
14:40:21.104	1656700821104.000104000	0.12
14:40:21.361	1656700821361.000361000	0.12
14:40:21.612	1656700821612.000612000	0.12
14:40:21.871	1656700821871.000871000	0.12
14:40:22.125	1656700822125.000125000	0.12
14:40:22.662	1656700822662.000662000	0.12
14:40:22.982	1656700822982.000982000	0.12
14:40:23.231	1656700823231.000231000	0.12
14:40:23.484	1656700823484.000484000	0.12
14:40:23.739	1656700823739.000739000	0.12
14:40:24.003	1656700824003.000003000	0.12
14:40:24.250	1656700824250.000250000	0.12
14:40:24.507	1656700824507.000507000	0.12
14:40:24.767	1656700824767.000767000	0.12
14:40:25.015	1656700825015.000015000	0.12
14:40:25.269	1656700825269.000269000	0.12
14:40:25.524	1656700825524.000524000	0.12
14:40:25.783	1656700825783.000783000	0.12
14:40:26.034	1656700826034.000034000	0.13
14:40:26.289	1656700826289.000289000	0.12
14:40:26.554	1656700826554.000554000	0.12
14:40:26.806	1656700826806.000806000	0.12
14:40:27.061	1656700827061.000061000	0.12
14:40:27.309	1656700827309.000309000	0.12
14:40:27.564	1656700827564.000564000	0.12
14:40:27.825	1656700827825.000825000	0.12
14:40:28.074	1656700828074.000074000	0.12
14:40:28.335	1656700828335.000335000	0.12
14:40:28.590	1656700828590.000590000	0.12
14:40:28.846	1656700828846.000846000	0.12
14:40:29.100	1656700829100.000100000	0.12
14:40:29.355	1656700829355.000355000	0.12
14:40:29.605	1656700829605.000605000	0.12
14:40:29.866	1656700829866.000866000	0.12
14:40:30.127	1656700830127.000127000	0.12
14:40:30.369	1656700830369.000369000	0.12
14:40:30.624	1656700830624.000624000	0.12
14:40:30.879	1656700830879.00087Data from 1GT42_Units14_2.txt Node
Standard Time	Epoch Time	Value
HH:MM:SS:000	(msec since 01/01/1900)
Spectrometer: FLMT01689
Trigger mode: 0
Integration Time (sec): 8.500000E-2
Scans to average: 3
Electric dark correction enabled: true
Nonlinearity correction enabled: false
Boxcar width: 3
XAxis mode: Time
Number of Pixels in Spectrum: 3648
>>>>>Begin Spectral Data<<<<<
14:39:44.244	1656700784244.000244000	0.12
14:39:44.474	1656700784474.000474000	0.12
14:39:44.724	1656700784724.000724000	0.12
14:39:44.979	1656700784979.000979000	0.12
14:39:45.234	1656700785234.000234000	0.12
14:39:45.489	1656700785489.000489000	0.12
14:39:45.744	1656700785744.000744000	0.12
14:39:46.002	1656700786002.000002000	0.11
14:39:46.254	1656700786254.000254000	0.12
14:39:46.510	1656700786510.000510000	0.12
14:39:46.764	1656700786764.000764000	0.12
14:39:47.024	1656700787024.000024000	0.12
14:39:47.273	1656700787273.000273000	0.12
14:39:47.529	1656700787529.000529000	0.12
14:39:47.784	1656700787784.000784000	0.12
14:39:48.039	1656700788039.000039000	0.13
14:39:48.295	1656700788295.000295000	0.12
14:39:48.549	1656700788549.000549000	0.12
14:39:48.890	1656700788890.000890000	0.12
14:39:49.144	1656700789144.000144000	0.12
14:39:49.399	1656700789399.000399000	0.12
14:39:49.655	1656700789655.000655000	0.12
14:39:49.909	1656700789909.000909000	0.12
14:39:50.164	1656700790164.000164000	0.12
14:39:50.421	1656700790421.000421000	0.12
14:39:50.674	1656700790674.000674000	0.12
14:39:50.930	1656700790930.000930000	0.12
14:39:51.184	1656700791184.000184000	0.12
14:39:51.439	1656700791439.000439000	0.12
14:39:51.694	1656700791694.000694000	0.12
14:39:51.949	1656700791949.000949000	0.12
14:39:52.204	1656700792204.000204000	0.12
14:39:52.459	1656700792459.000459000	0.12
14:39:52.714	1656700792714.000714000	0.12
14:39:52.970	1656700792970.000970000	0.12
14:39:53.224	1656700793224.000224000	0.12
14:39:53.479	1656700793479.000479000	0.12
14:39:53.738	1656700793738.000738000	0.12
14:39:53.989	1656700793989.000989000	0.12
14:39:54.246	1656700794246.000246000	0.12
14:39:54.500	1656700794500.000500000	0.12
14:39:54.754	1656700794754.000754000	0.12
14:39:55.009	1656700795009.000009000	0.12
14:39:55.267	1656700795267.000267000	0.12
14:39:55.523	1656700795523.000523000	0.12
14:39:55.774	1656700795774.000774000	0.12
14:39:56.030	1656700796030.000030000	0.12
14:39:56.284	1656700796284.000284000	0.12
14:39:56.540	1656700796540.000540000	0.12
14:39:56.805	1656700796805.000805000	0.12
14:39:57.049	1656700797049.000049000	0.12
14:39:57.304	1656700797304.000304000	0.12
14:39:57.559	1656700797559.000559000	0.12
14:39:57.814	1656700797814.000814000	0.12
14:39:58.069	1656700798069.000069000	0.12
14:39:58.324	1656700798324.000324000	0.12
14:39:58.579	1656700798579.000579000	0.12
14:39:58.834	1656700798834.000834000	0.12
14:39:59.089	1656700799089.000089000	0.12
14:39:59.344	1656700799344.000344000	0.12
14:39:59.602	1656700799602.000602000	0.12
14:39:59.854	1656700799854.000854000	0.12
14:40:00.110	1656700800110.000110000	0.12
14:40:00.364	1656700800364.000364000	0.12
14:40:00.619	1656700800619.000619000	0.12
14:40:00.874	1656700800874.000874000	0.12
14:40:01.129	1656700801129.000129000	0.12
14:40:01.384	1656700801384.000384000	0.12
14:40:01.639	1656700801639.000639000	0.12
14:40:01.894	1656700801894.000894000	0.12
14:40:02.149	1656700802149.000149000	0.12
14:40:02.404	1656700802404.000404000	0.12
14:40:02.659	1656700802659.000659000	0.12
14:40:02.914	1656700802914.000914000	0.12
14:40:03.169	1656700803169.000169000	0.12
14:40:03.425	1656700803425.000425000	0.12
14:40:03.679	1656700803679.000679000	0.12
14:40:03.936	1656700803936.000936000	0.12
14:40:04.189	1656700804189.000189000	0.12
14:40:04.444	1656700804444.000444000	0.12
14:40:04.705	1656700804705.000705000	0.12
14:40:04.955	1656700804955.000955000	0.12
14:40:05.211	1656700805211.000211000	0.12
14:40:05.464	1656700805464.000464000	0.12
14:40:05.719	1656700805719.000719000	0.12
14:40:05.974	1656700805974.000974000	0.12
14:40:06.229	1656700806229.000229000	0.12
14:40:06.490	1656700806490.000490000	0.12
14:40:06.740	1656700806740.000740000	0.12
14:40:06.995	1656700806995.000995000	0.12
14:40:07.249	1656700807249.000249000	0.12
14:40:07.504	1656700807504.000504000	0.12
14:40:07.759	1656700807759.000759000	0.12
14:40:08.014	1656700808014.000014000	0.12
14:40:08.275	1656700808275.000275000	0.12
14:40:08.527	1656700808527.000527000	0.12
14:40:08.779	1656700808779.000779000	0.12
14:40:09.034	1656700809034.000034000	0.12
14:40:09.289	1656700809289.000289000	0.12
14:40:09.544	1656700809544.000544000	0.12
14:40:09.799	1656700809799.000799000	0.12
14:40:10.054	1656700810054.000054000	0.12
14:40:10.309	1656700810309.000309000	0.12
14:40:10.571	1656700810571.000571000	0.12
14:40:10.820	1656700810820.000820000	0.12
14:40:11.074	1656700811074.000074000	0.12
14:40:11.329	1656700811329.000329000	0.12
14:40:11.584	1656700811584.000584000	0.12
14:40:11.839	1656700811839.000839000	0.12
14:40:12.094	1656700812094.000094000	0.12
14:40:12.349	1656700812349.000349000	0.12
14:40:12.610	1656700812610.000610000	0.12
14:40:12.859	1656700812859.000859000	0.12
14:40:13.115	1656700813115.000115000	0.12
14:40:13.369	1656700813369.000369000	0.12
14:40:13.625	1656700813625.000625000	0.12
14:40:13.879	1656700813879.000879000	0.12
14:40:14.135	1656700814135.000135000	0.12
14:40:14.389	1656700814389.000389000	0.12
14:40:14.649	1656700814649.000649000	0.12
14:40:14.900	1656700814900.000900000	0.12
14:40:15.154	1656700815154.000154000	0.12
14:40:15.409	1656700815409.000409000	0.12
14:40:15.664	1656700815664.000664000	0.12
14:40:15.919	1656700815919.000919000	0.12
14:40:16.174	1656700816174.000174000	0.12
14:40:16.429	1656700816429.000429000	0.12
14:40:16.686	1656700816686.000686000	0.12
14:40:16.945	1656700816945.000945000	0.12
14:40:17.194	1656700817194.000194000	0.12
14:40:17.449	1656700817449.000449000	0.12
14:40:17.704	1656700817704.000704000	0.12
14:40:17.959	1656700817959.000959000	0.12
14:40:18.215	1656700818215.000215000	0.12
14:40:18.469	1656700818469.000469000	0.12
14:40:18.730	1656700818730.000730000	0.12
14:40:18.980	1656700818980.000980000	0.12
14:40:19.234	1656700819234.000234000	0.12
14:40:19.489	1656700819489.000489000	0.12
14:40:19.748	1656700819748.000748000	0.12
14:40:20.004	1656700820004.000004000	0.12
14:40:20.255	1656700820255.000255000	0.12
14:40:20.510	1656700820510.000510000	0.12
14:40:20.765	1656700820765.000765000	0.12
14:40:21.104	1656700821104.000104000	0.12
14:40:21.361	1656700821361.000361000	0.12
14:40:21.612	1656700821612.000612000	0.12
14:40:21.871	1656700821871.000871000	0.12
14:40:22.125	1656700822125.000125000	0.12
14:40:22.662	1656700822662.000662000	0.12
14:40:22.982	1656700822982.000982000	0.12
14:40:23.231	1656700823231.000231000	0.12
14:40:23.484	1656700823484.000484000	0.12
14:40:23.739	1656700823739.000739000	0.12
14:40:24.003	1656700824003.000003000	0.12
14:40:24.250	1656700824250.000250000	0.12
14:40:24.507	1656700824507.000507000	0.12
14:40:24.767	1656700824767.000767000	0.12
14:40:25.015	1656700825015.000015000	0.12
14:40:25.269	1656700825269.000269000	0.12
14:40:25.524	1656700825524.000524000	0.12
14:40:25.783	1656700825783.000783000	0.12
14:40:26.034	1656700826034.000034000	0.13
14:40:26.289	1656700826289.000289000	0.12
14:40:26.554	1656700826554.000554000	0.12
14:40:26.806	1656700826806.000806000	0.12
14:40:27.061	1656700827061.000061000	0.12
14:40:27.309	1656700827309.000309000	0.12
14:40:27.564	1656700827564.000564000	0.12
14:40:27.825	1656700827825.000825000	0.12
14:40:28.074	1656700828074.000074000	0.12
14:40:28.335	1656700828335.000335000	0.12
14:40:28.590	1656700828590.000590000	0.12
14:40:28.846	1656700828846.000846000	0.12
14:40:29.100	1656700829100.000100000	0.12
14:40:29.355	1656700829355.000355000	0.12
14:40:29.605	1656700829605.000605000	0.12
14:40:29.866	1656700829866.000866000	0.12
14:40:30.127	1656700830127.000127000	0.12
14:40:30.369	1656700830369.000369000	0.12
14:40:30.624	1656700830624.000624000	0.12
14:40:30.879	1656700830879.000879000	0.12
14:40:31.135	1656700831135.000135000	0.12
14:40:31.393	1656700831393.000393000	0.12
14:40:31.651	1656700831651.000651000	0.12
14:40:31.900	1656700831900.000900000	0.12
14:40:32.163	1656700832163.000163000	0.12
14:40:32.411	1656700832411.000411000	0.12
14:40:32.664	1656700832664.000664000	0.12
14:40:32.921	1656700832921.000921000	0.12
14:40:33.175	1656700833175.000175000	0.12
14:40:33.430	1656700833430.000430000	0.12
14:40:33.684	1656700833684.000684000	0.12
14:40:33.939	1656700833939.000939000	0.12