Data from 1GT43_Units14_1.txt Node
Standard Time	Epoch Time	Value
HH:MM:SS:000	(msec since 01/01/1900)
Spectrometer: FLMT01689
Trigger mode: 0
Integration Time (sec): 8.500000E-2
Scans to average: 3
Electric dark correction enabled: true
Nonlinearity correction enabled: false
Boxcar width: 3
XAxis mode: Time
Number of Pixels in Spectrum: 3648
>>>>>Begin Spectral Data<<<<<
12:21:01.198	1656692461198.000198000	0.11
12:21:01.452	1656692461452.000452000	0.11
12:21:01.708	1656692461708.000708000	0.11
12:21:01.962	1656692461962.000962000	0.11
12:21:02.218	1656692462218.000218000	0.11
12:21:02.473	1656692462473.000473000	0.11
12:21:02.728	1656692462728.000728000	0.12
12:21:02.982	1656692462982.000982000	0.11
12:21:03.241	1656692463241.000241000	0.12
12:21:03.494	1656692463494.000494000	0.11
12:21:03.748	1656692463748.000748000	0.12
12:21:04.003	1656692464003.000003000	0.12
12:21:04.257	1656692464257.000257000	0.11
12:21:04.513	1656692464513.000513000	0.11
12:21:04.768	1656692464768.000768000	0.12
12:21:05.032	1656692465032.000032000	0.11
12:21:05.283	1656692465283.000283000	0.11
12:21:05.535	1656692465535.000535000	0.11
12:21:05.789	1656692465789.000789000	0.12
12:21:06.043	1656692466043.000043000	0.11
12:21:06.299	1656692466299.000299000	0.11
12:21:06.552	1656692466552.000552000	0.12
12:21:06.809	1656692466809.000809000	0.12
12:21:07.062	1656692467062.000062000	0.11
12:21:07.318	1656692467318.000318000	0.12
12:21:07.581	1656692467581.000581000	0.11
12:21:07.828	1656692467828.000828000	0.12
12:21:08.083	1656692468083.000083000	0.11
12:21:08.338	1656692468338.000338000	0.11
12:21:08.594	1656692468594.000594000	0.12
12:21:08.847	1656692468847.000847000	0.11
12:21:09.103	1656692469103.000103000	0.11
12:21:09.357	1656692469357.000357000	0.11
12:21:09.613	1656692469613.000613000	0.11
12:21:09.868	1656692469868.000868000	0.11
12:21:10.123	1656692470123.000123000	0.11
12:21:10.377	1656692470377.000377000	0.11
12:21:10.633	1656692470633.000633000	0.12
12:21:10.888	1656692470888.000888000	0.11
12:21:11.143	1656692471143.000143000	0.11
12:21:11.398	1656692471398.000398000	0.11
12:21:11.652	1656692471652.000652000	0.11
12:21:11.914	1656692471914.000914000	0.11
12:21:12.163	1656692472163.000163000	0.12
12:21:12.418	1656692472418.000418000	0.12
12:21:12.672	1656692472672.000672000	0.11
12:21:12.928	1656692472928.000928000	0.11
12:21:13.182	1656692473182.000182000	0.11
12:21:13.437	1656692473437.000437000	0.12
12:21:13.693	1656692473693.000693000	0.11
12:21:13.947	1656692473947.000947000	0.11
12:21:14.203	1656692474203.000203000	0.11
12:21:14.457	1656692474457.000457000	0.11
12:21:14.713	1656692474713.000713000	0.11
12:21:14.968	1656692474968.000968000	0.11
12:21:15.223	1656692475223.000223000	0.11
12:21:15.479	1656692475479.000479000	0.11
12:21:15.732	1656692475732.000732000	0.11
12:21:15.987	1656692475987.000987000	0.11
12:21:16.248	1656692476248.000248000	0.11
12:21:16.501	1656692476501.000501000	0.11
12:21:16.752	1656692476752.000752000	0.11
12:21:17.009	1656692477009.000009000	0.11
12:21:17.264	1656692477264.000264000	0.11
12:21:17.518	1656692477518.000518000	0.11
12:21:17.773	1656692477773.000773000	0.11
12:21:18.028	1656692478028.000028000	0.11
12:21:18.286	1656692478286.000286000	0.11
12:21:18.544	1656692478544.000544000	0.11
12:21:18.792	1656692478792.000792000	0.11
12:21:19.047	1656692479047.000047000	0.11
12:21:19.303	1656692479303.000303000	0.11
12:21:19.558	1656692479558.000558000	0.11
12:21:19.814	1656692479814.000814000	0.11
12:21:20.068	1656692480068.000068000	0.11
12:21:20.328	1656692480328.000328000	0.11
12:21:20.578	1656692480578.000578000	0.11
12:21:20.920	1656692480920.000920000	0.11
12:21:21.173	1656692481173.000173000	0.11
12:21:21.428	1656692481428.000428000	0.12
12:21:21.683	1656692481683.000683000	0.11
12:21:21.938	1656692481938.000938000	0.11
12:21:22.192	1656692482192.000192000	0.11
12:21:22.448	1656692482448.000448000	0.11
12:21:22.702	1656692482702.000702000	0.11
12:21:22.956	1656692482956.000956000	0.11
12:21:23.212	1656692483212.000212000	0.11
12:21:23.472	1656692483472.000472000	0.11
12:21:23.723	1656692483723.000723000	0.12
12:21:23.978	1656692483978.000978000	0.12
12:21:24.232	1656692484232.000232000	0.11
12:21:24.488	1656692484488.000488000	0.11
12:21:24.743	1656692484743.000743000	0.11
12:21:24.997	1656692484997.000997000	0.12
12:21:25.253	1656692485253.000253000	0.11
12:21:25.508	1656692485508.000508000	0.11
12:21:25.763	1656692485763.000763000	0.11
12:21:26.017	1656692486017.000017000	0.11
12:21:26.272	1656692486272.000272000	0.11
12:21:26.528	1656692486528.000528000	0.11
12:21:26.784	1656692486784.000784000	0.11
12:21:27.038	1656692487038.000038000	0.11
12:21:27.293	1656692487293.000293000	0.11
12:21:27.548	1656692487548.000548000	0.11
12:21:27.804	1656692487804.000804000	0.12
12:21:28.058	1656692488058.000058000	0.11
12:21:28.313	1656692488313.000313000	0.11
12:21:28.568	1656692488568.000568000	0.11
12:21:28.824	1656692488824.000824000	0.11
12:21:29.078	1656692489078.000078000	0.11
12:21:29.333	1656692489333.000333000	0.11
12:21:29.678	1656692489678.000678000	0.11
12:21:29.928	1656692489928.000928000	0.11
12:21:30.185	1656692490185.000185000	0.11
12:21:30.440	1656692490440.000440000	0.11
12:21:30.693	1656692490693.000693000	0.11
12:21:30.948	1656692490948.000948000	0.11
12:21:31.203	1656692491203.000203000	0.11
12:21:31.458	1656692491458.000458000	0.11
12:21:31.713	1656692491713.000713000	0.11
12:21:31.967	1656692491967.000967000	0.11
12:21:32.223	1656692492223.000223000	0.11
12:21:32.481	1656692492481.000481000	0.11
12:21:32.733	1656692492733.000733000	0.11
12:21:32.988	1656692492988.000988000	0.11
12:21:33.243	1656692493243.000243000	0.12
12:21:33.498	1656692493498.000498000	0.11
12:21:33.756	1656692493756.000756000	0.11
12:21:34.008	1656692494008.000008000	0.11
12:21:34.263	1656692494263.000263000	0.11
12:21:34.519	1656692494519.000519000	0.11
12:21:34.773	1656692494773.000773000	0.11
12:21:35.028	1656692495028.000028000	0.11
12:21:35.283	1656692495283.000283000	0.12
12:21:35.538	1656692495538.000538000	0.11
12:21:35.793	1656692495793.000793000	0.11
12:21:36.048	1656692496048.000048000	0.11
12:21:36.304	1656692496304.000304000	0.11
12:21:36.563	1656692496563.000563000	0.11
12:21:36.814	1656692496814.000814000	0.11
12:21:37.067	1656692497067.000067000	0.11