Data from 4HS13_Units14_2.txt Node
Standard Time	Epoch Time	Value
HH:MM:SS:000	(msec since 01/01/1900)
Spectrometer: FLMT01689
Trigger mode: 0
Integration Time (sec): 8.500000E-2
Scans to average: 3
Electric dark correction enabled: true
Nonlinearity correction enabled: false
Boxcar width: 3
XAxis mode: Time
Number of Pixels in Spectrum: 3648
>>>>>Begin Spectral Data<<<<<
16:20:17.910	1656706817910.000910000	0.12
16:20:18.166	1656706818166.000166000	0.11
16:20:18.420	1656706818420.000420000	0.12
16:20:18.675	1656706818675.000675000	0.12
16:20:18.930	1656706818930.000930000	0.11
16:20:19.185	1656706819185.000185000	0.12
16:20:19.443	1656706819443.000443000	0.12
16:20:19.696	1656706819696.000696000	0.12
16:20:19.950	1656706819950.000950000	0.12
16:20:20.205	1656706820205.000205000	0.12
16:20:20.460	1656706820460.000460000	0.11
16:20:20.717	1656706820717.000717000	0.12
16:20:20.970	1656706820970.000970000	0.12
16:20:21.225	1656706821225.000225000	0.11
16:20:21.480	1656706821480.000480000	0.12
16:20:21.736	1656706821736.000736000	0.12
16:20:21.991	1656706821991.000991000	0.12
16:20:22.246	1656706822246.000246000	0.11
16:20:22.501	1656706822501.000501000	0.12
16:20:22.755	1656706822755.000755000	0.12
16:20:23.010	1656706823010.000010000	0.12
16:20:23.265	1656706823265.000265000	0.12
16:20:23.520	1656706823520.000520000	0.11
16:20:23.776	1656706823776.000776000	0.12
16:20:24.030	1656706824030.000030000	0.11
16:20:24.285	1656706824285.000285000	0.12
16:20:24.540	1656706824540.000540000	0.12
16:20:24.795	1656706824795.000795000	0.12
16:20:25.050	1656706825050.000050000	0.12
16:20:25.306	1656706825306.000306000	0.11
16:20:25.560	1656706825560.000560000	0.12
16:20:25.816	1656706825816.000816000	0.11
16:20:26.070	1656706826070.000070000	0.11
16:20:26.326	1656706826326.000326000	0.11
16:20:26.581	1656706826581.000581000	0.12
16:20:26.835	1656706826835.000835000	0.11
16:20:27.090	1656706827090.000090000	0.12
16:20:27.345	1656706827345.000345000	0.11
16:20:27.600	1656706827600.000600000	0.12
16:20:27.856	1656706827856.000856000	0.12
16:20:28.111	1656706828111.000111000	0.11
16:20:28.366	1656706828366.000366000	0.12
16:20:28.620	1656706828620.000620000	0.12
16:20:28.962	1656706828962.000962000	0.12
16:20:29.216	1656706829216.000216000	0.12
16:20:29.477	1656706829477.000477000	0.12
16:20:29.725	1656706829725.000725000	0.11
16:20:29.980	1656706829980.000980000	0.12
16:20:30.236	1656706830236.000236000	0.12
16:20:30.490	1656706830490.000490000	0.12
16:20:30.745	1656706830745.000745000	0.12
16:20:30.998	1656706830998.000998000	0.12
16:20:31.256	1656706831256.000256000	0.11
16:20:31.514	1656706831514.000514000	0.12
16:20:31.766	1656706831766.000766000	0.12
16:20:32.020	1656706832020.000020000	0.11
16:20:32.276	1656706832276.000276000	0.12
16:20:32.531	1656706832531.000531000	0.12
16:20:32.785	1656706832785.000785000	0.12
16:20:33.041	1656706833041.000041000	0.11
16:20:33.298	1656706833298.000298000	0.12
16:20:33.556	1656706833556.000556000	0.11
16:20:33.806	1656706833806.000806000	0.12
16:20:34.060	1656706834060.000060000	0.11
16:20:34.316	1656706834316.000316000	0.12
16:20:34.571	1656706834571.000571000	0.12
16:20:34.826	1656706834826.000826000	0.12
16:20:35.080	1656706835080.000080000	0.12
16:20:35.334	1656706835334.000334000	0.12
16:20:35.592	1656706835592.000592000	0.11
16:20:35.845	1656706835845.000845000	0.11
16:20:36.102	1656706836102.000102000	0.12
16:20:36.356	1656706836356.000356000	0.12
16:20:36.611	1656706836611.000611000	0.12
16:20:36.866	1656706836866.000866000	0.12
16:20:37.120	1656706837120.000120000	0.12
16:20:37.376	1656706837376.000376000	0.12
16:20:37.636	1656706837636.000636000	0.12
16:20:37.886	1656706837886.000886000	0.12
16:20:38.141	1656706838141.000141000	0.11
16:20:38.395	1656706838395.000395000	0.12
16:20:38.651	1656706838651.000651000	0.12
16:20:38.907	1656706838907.000907000	0.12
16:20:39.160	1656706839160.000160000	0.12
16:20:39.417	1656706839417.000417000	0.12
16:20:39.677	1656706839677.000677000	0.12
16:20:39.924	1656706839924.000924000	0.11
16:20:40.181	1656706840181.000181000	0.12
16:20:40.436	1656706840436.000436000	0.12
16:20:40.695	1656706840695.000695000	0.12
16:20:40.946	1656706840946.000946000	0.11
16:20:41.201	1656706841201.000201000	0.12
16:20:41.458	1656706841458.000458000	0.12
16:20:41.715	1656706841715.000715000	0.12
16:20:41.965	1656706841965.000965000	0.11
16:20:42.220	1656706842220.000220000	0.12
16:20:42.476	1656706842476.000476000	0.12
16:20:42.731	1656706842731.000731000	0.11
16:20:42.986	1656706842986.000986000	0.12
16:20:43.241	1656706843241.000241000	0.12
16:20:43.496	1656706843496.000496000	0.11
16:20:43.753	1656706843753.000753000	0.12
16:20:44.007	1656706844007.000007000	0.12
16:20:44.259	1656706844259.000259000	0.11
16:20:44.516	1656706844516.000516000	0.12
16:20:44.770	1656706844770.000770000	0.12
16:20:45.026	1656706845026.000026000	0.12
16:20:45.281	1656706845281.000281000	0.12
16:20:45.536	1656706845536.000536000	0.11
16:20:45.789	1656706845789.000789000	0.12
16:20:46.046	1656706846046.000046000	0.12
16:20:46.307	1656706846307.000307000	0.11
16:20:46.556	1656706846556.000556000	0.12
16:20:46.810	1656706846810.000810000	0.12
16:20:47.066	1656706847066.000066000	0.12
16:20:47.321	1656706847321.000321000	0.12
16:20:47.576	1656706847576.000576000	0.12
16:20:47.830	1656706847830.000830000	0.12
16:20:48.086	1656706848086.000086000	0.12
16:20:48.341	1656706848341.000341000	0.11
16:20:48.599	1656706848599.000599000	0.12
16:20:48.850	1656706848850.000850000	0.12
16:20:49.105	1656706849105.000105000	0.11
16:20:49.361	1656706849361.000361000	0.12
16:20:49.615	1656706849615.000615000	0.12
16:20:49.869	1656706849869.000869000	0.11
16:20:50.126	1656706850126.000126000	0.12
16:20:50.380	1656706850380.000380000	0.12
16:20:50.634	1656706850634.000634000	0.13
16:20:50.891	1656706850891.000891000	0.12
16:20:51.146	1656706851146.000146000	0.12
16:20:51.401	1656706851401.000401000	0.12
16:20:51.655	1656706851655.000655000	0.11
16:20:51.910	1656706851910.000910000	0.11
16:20:52.165	1656706852165.000165000	0.11
16:20:52.421	1656706852421.000421000	0.12
16:20:52.675	1656706852675.000675000	0.12
16:20:52.935	1656706852935.000935000	0.12
16:20:53.186	1656706853186.000186000	0.11
16:20:53.440	1656706853440.000440000	0.12
16:20:53.695	1656706853695.000695000	0.12
16:20:53.950	1656706853950.000950000	0.12
16:20:54.205	1656706854205.000205000	0.12
16:20:54.461	1656706854461.000461000	0.12