Data from 0CX4_Units14_2.txt Node
Standard Time	Epoch Time	Value
HH:MM:SS:000	(msec since 01/01/1900)
Spectrometer: FLMT01689
Trigger mode: 0
Integration Time (sec): 8.500000E-2
Scans to average: 3
Electric dark correction enabled: true
Nonlinearity correction enabled: false
Boxcar width: 3
XAxis mode: Time
Number of Pixels in Spectrum: 3648
>>>>>Begin Spectral Data<<<<<
12:48:59.397	1657039739397.000397000	0.11
12:48:59.397	1657039739654.000654000	0.11
12:48:59.906	1657039739906.000906000	0.11
12:49:00.167	1657039740167.000167000	0.11
12:49:00.414	1657039740414.000414000	0.12
12:49:00.671	1657039740671.000671000	0.12
12:49:00.927	1657039740927.000927000	0.11
12:49:01.181	1657039741181.000181000	0.12
12:49:01.437	1657039741437.000437000	0.11
12:49:01.696	1657039741696.000696000	0.11
12:49:01.946	1657039741946.000946000	0.11
12:49:02.207	1657039742207.000207000	0.12
12:49:02.457	1657039742457.000457000	0.12
12:49:02.710	1657039742710.000710000	0.11
12:49:02.967	1657039742967.000967000	0.11
12:49:03.222	1657039743222.000222000	0.12
12:49:03.476	1657039743476.000476000	0.11
12:49:03.732	1657039743732.000732000	0.11
12:49:03.987	1657039743987.000987000	0.11
12:49:04.242	1657039744242.000242000	0.12
12:49:04.502	1657039744502.000502000	0.12
12:49:04.751	1657039744751.000751000	0.12
12:49:05.006	1657039745006.000006000	0.12
12:49:05.262	1657039745262.000262000	0.12
12:49:05.516	1657039745516.000516000	0.12
12:49:05.771	1657039745771.000771000	0.11
12:49:06.027	1657039746027.000027000	0.12
12:49:06.281	1657039746281.000281000	0.11
12:49:06.537	1657039746537.000537000	0.12
12:49:06.791	1657039746791.000791000	0.12
12:49:07.050	1657039747050.000050000	0.12
12:49:07.302	1657039747302.000302000	0.12
12:49:07.557	1657039747557.000557000	0.11
12:49:07.811	1657039747811.000811000	0.12
12:49:08.063	1657039748063.000063000	0.12
12:49:08.322	1657039748322.000322000	0.12
12:49:08.579	1657039748579.000579000	0.12
12:49:08.831	1657039748831.000831000	0.12
12:49:09.086	1657039749086.000086000	0.12
12:49:09.341	1657039749341.000341000	0.11
12:49:09.596	1657039749596.000596000	0.12
12:49:09.852	1657039749852.000852000	0.11
12:49:10.107	1657039750107.000107000	0.12
12:49:10.362	1657039750362.000362000	0.11
12:49:10.617	1657039750617.000617000	0.12
12:49:10.871	1657039750871.000871000	0.11
12:49:11.126	1657039751126.000126000	0.11
12:49:11.381	1657039751381.000381000	0.12
12:49:11.637	1657039751637.000637000	0.11
12:49:11.892	1657039751892.000892000	0.11
12:49:12.146	1657039752146.000146000	0.11
12:49:12.403	1657039752403.000403000	0.12
12:49:12.657	1657039752657.000657000	0.12
12:49:12.917	1657039752917.000917000	0.12
12:49:13.166	1657039753166.000166000	0.12
12:49:13.423	1657039753423.000423000	0.12
12:49:13.676	1657039753676.000676000	0.11
12:49:13.933	1657039753933.000933000	0.11
12:49:14.187	1657039754187.000187000	0.11
12:49:14.441	1657039754441.000441000	0.12
12:49:14.697	1657039754697.000697000	0.12
12:49:14.952	1657039754952.000952000	0.12
12:49:15.207	1657039755207.000207000	0.12
12:49:15.461	1657039755461.000461000	0.12
12:49:15.718	1657039755718.000718000	0.11
12:49:15.975	1657039755975.000975000	0.11
12:49:16.228	1657039756228.000228000	0.12
12:49:16.481	1657039756481.000481000	0.12
12:49:16.738	1657039756738.000738000	0.11
12:49:16.991	1657039756991.000991000	0.12
12:49:17.249	1657039757249.000249000	0.11
12:49:17.502	1657039757502.000502000	0.11
12:49:17.762	1657039757762.000762000	0.11
12:49:18.012	1657039758012.000012000	0.12
12:49:18.267	1657039758267.000267000	0.11
12:49:18.521	1657039758521.000521000	0.12
12:49:18.777	1657039758777.000777000	0.12
12:49:19.031	1657039759031.000031000	0.12
12:49:19.287	1657039759287.000287000	0.11
12:49:19.542	1657039759542.000542000	0.11
12:49:19.797	1657039759797.000797000	0.12
12:49:20.051	1657039760051.000051000	0.12
12:49:20.306	1657039760306.000306000	0.11
12:49:20.561	1657039760561.000561000	0.12
12:49:20.816	1657039760816.000816000	0.12
12:49:21.072	1657039761072.000072000	0.12
12:49:21.326	1657039761326.000326000	0.12
12:49:21.582	1657039761582.000582000	0.11
12:49:21.837	1657039761837.000837000	0.11
12:49:22.091	1657039762091.000091000	0.12
12:49:22.346	1657039762346.000346000	0.11
12:49:22.598	1657039762598.000598000	0.12
12:49:22.856	1657039762856.000856000	0.11
12:49:23.117	1657039763117.000117000	0.12
12:49:23.367	1657039763367.000367000	0.12
12:49:23.620	1657039763620.000620000	0.12
12:49:23.877	1657039763877.000877000	0.12
12:49:24.137	1657039764137.000137000	0.12
12:49:24.386	1657039764386.000386000	0.11
12:49:24.647	1657039764647.000647000	0.12
12:49:24.897	1657039764897.000897000	0.11
12:49:25.152	1657039765152.000152000	0.12
12:49:25.407	1657039765407.000407000	0.12
12:49:25.662	1657039765662.000662000	0.11
12:49:25.917	1657039765917.000917000	0.11
12:49:26.173	1657039766173.000173000	0.12
12:49:26.426	1657039766426.000426000	0.12
12:49:26.682	1657039766682.000682000	0.12
12:49:26.937	1657039766937.000937000	0.11
12:49:27.191	1657039767191.000191000	0.12
12:49:27.447	1657039767447.000447000	0.12
12:49:27.702	1657039767702.000702000	0.12
12:49:27.960	1657039767960.000960000	0.12
12:49:28.212	1657039768212.000212000	0.11
12:49:28.467	1657039768467.000467000	0.11
12:49:28.718	1657039768718.000718000	0.11
12:49:28.973	1657039768973.000973000	0.11
12:49:29.232	1657039769232.000232000	0.11
12:49:29.490	1657039769490.000490000	0.11
12:49:29.741	1657039769741.000741000	0.11
12:49:29.997	1657039769997.000997000	0.12
12:49:30.252	1657039770252.000252000	0.12
12:49:30.507	1657039770507.000507000	0.11
12:49:30.760	1657039770760.000760000	0.12
12:49:31.017	1657039771017.000017000	0.12
12:49:31.272	1657039771272.000272000	0.12
12:49:31.532	1657039771532.000532000	0.12
12:49:31.782	1657039771782.000782000	0.12