Data from 0CX4_Units14_6.txt Node
Standard Time	Epoch Time	Value
HH:MM:SS:000	(msec since 01/01/1900)
Spectrometer: FLMT01689
Trigger mode: 0
Integration Time (sec): 8.500000E-2
Scans to average: 3
Electric dark correction enabled: true
Nonlinearity correction enabled: false
Boxcar width: 3
XAxis mode: Time
Number of Pixels in Spectrum: 3648
>>>>>Begin Spectral Data<<<<<
13:53:35.512	1657043615512.000512000	0.12
13:53:35.770	1657043615770.000770000	0.12
13:53:36.025	1657043616025.000025000	0.12
13:53:36.279	1657043616279.000279000	0.12
13:53:36.534	1657043616534.000534000	0.12
13:53:36.790	1657043616790.000790000	0.11
13:53:37.045	1657043617045.000045000	0.12
13:53:37.300	1657043617300.000300000	0.12
13:53:37.556	1657043617556.000556000	0.12
13:53:37.810	1657043617810.000810000	0.12
13:53:38.065	1657043618065.000065000	0.12
13:53:38.320	1657043618320.000320000	0.12
13:53:38.576	1657043618576.000576000	0.12
13:53:38.830	1657043618830.000830000	0.12
13:53:39.086	1657043619086.000086000	0.12
13:53:39.340	1657043619340.000340000	0.12
13:53:39.595	1657043619595.000595000	0.12
13:53:39.850	1657043619850.000850000	0.12
13:53:40.105	1657043620105.000105000	0.12
13:53:40.361	1657043620361.000361000	0.12
13:53:40.616	1657043620616.000616000	0.12
13:53:40.870	1657043620870.000870000	0.12
13:53:41.126	1657043621126.000126000	0.12
13:53:41.384	1657043621384.000384000	0.12
13:53:41.635	1657043621635.000635000	0.12
13:53:41.891	1657043621891.000891000	0.12
13:53:42.145	1657043622145.000145000	0.12
13:53:42.401	1657043622401.000401000	0.12
13:53:42.656	1657043622656.000656000	0.12
13:53:42.911	1657043622911.000911000	0.12
13:53:43.166	1657043623166.000166000	0.12
13:53:43.421	1657043623421.000421000	0.12
13:53:43.679	1657043623679.000679000	0.12
13:53:43.930	1657043623930.000930000	0.12
13:53:44.186	1657043624186.000186000	0.12
13:53:44.441	1657043624441.000441000	0.12
13:53:44.696	1657043624696.000696000	0.12
13:53:44.951	1657043624951.000951000	0.12
13:53:45.206	1657043625206.000206000	0.12
13:53:45.461	1657043625461.000461000	0.12
13:53:45.721	1657043625721.000721000	0.12
13:53:45.970	1657043625970.000970000	0.12
13:53:46.227	1657043626227.000227000	0.12
13:53:46.480	1657043626480.000480000	0.12
13:53:46.735	1657043626735.000735000	0.12
13:53:46.991	1657043626991.000991000	0.12
13:53:47.245	1657043627245.000245000	0.12
13:53:47.500	1657043627500.000500000	0.12
13:53:47.756	1657043627756.000756000	0.12
13:53:48.010	1657043628010.000010000	0.12
13:53:48.265	1657043628265.000265000	0.12
13:53:48.521	1657043628521.000521000	0.12
13:53:48.775	1657043628775.000775000	0.12
13:53:49.031	1657043629031.000031000	0.12
13:53:49.286	1657043629286.000286000	0.12
13:53:49.540	1657043629540.000540000	0.12
13:53:49.795	1657043629795.000795000	0.12
13:53:50.054	1657043630054.000054000	0.12
13:53:50.306	1657043630306.000306000	0.12
13:53:50.561	1657043630561.000561000	0.12
13:53:50.816	1657043630816.000816000	0.12
13:53:51.070	1657043631070.000070000	0.12
13:53:51.326	1657043631326.000326000	0.12
13:53:51.580	1657043631580.000580000	0.12
13:53:51.836	1657043631836.000836000	0.12
13:53:52.091	1657043632091.000091000	0.12
13:53:52.350	1657043632350.000350000	0.12
13:53:52.600	1657043632600.000600000	0.12
13:53:52.855	1657043632855.000855000	0.12
13:53:53.111	1657043633111.000111000	0.12
13:53:53.366	1657043633366.000366000	0.12
13:53:53.621	1657043633621.000621000	0.12
13:53:53.876	1657043633876.000876000	0.12
13:53:54.131	1657043634131.000131000	0.13
13:53:54.391	1657043634391.000391000	0.12
13:53:54.640	1657043634640.000640000	0.12
13:53:54.895	1657043634895.000895000	0.12
13:53:55.150	1657043635150.000150000	0.12
13:53:55.406	1657043635406.000406000	0.12
13:53:55.661	1657043635661.000661000	0.12
13:53:55.916	1657043635916.000916000	0.12
13:53:56.172	1657043636172.000172000	0.12
13:53:56.430	1657043636430.000430000	0.12
13:53:56.680	1657043636680.000680000	0.12
13:53:56.935	1657043636935.000935000	0.12
13:53:57.191	1657043637191.000191000	0.12
13:53:57.446	1657043637446.000446000	0.12
13:53:57.700	1657043637700.000700000	0.12
13:53:57.955	1657043637955.000955000	0.12
13:53:58.211	1657043638211.000211000	0.12
13:53:58.466	1657043638466.000466000	0.12
13:53:58.721	1657043638721.000721000	0.12
13:53:58.975	1657043638975.000975000	0.12
13:53:59.230	1657043639230.000230000	0.12
13:53:59.485	1657043639485.000485000	0.12
13:53:59.741	1657043639741.000741000	0.12
13:53:59.996	1657043639996.000996000	0.12
13:54:00.251	1657043640251.000251000	0.12
13:54:00.506	1657043640506.000506000	0.12
13:54:00.761	1657043640761.000761000	0.12
13:54:01.021	1657043641021.000021000	0.12
13:54:01.267	1657043641267.000267000	0.12
13:54:01.525	1657043641525.000525000	0.12
13:54:01.781	1657043641781.000781000	0.12
13:54:02.036	1657043642036.000036000	0.12
13:54:02.290	1657043642290.000290000	0.12
13:54:02.546	1657043642546.000546000	0.12
13:54:02.801	1657043642801.000801000	0.12
13:54:03.056	1657043643056.000056000	0.12
13:54:03.307	1657043643307.000307000	0.12
13:54:03.565	1657043643565.000565000	0.12
13:54:03.821	1657043643821.000821000	0.12
13:54:04.075	1657043644075.000075000	0.12
13:54:04.330	1657043644330.000330000	0.12
13:54:04.586	1657043644586.000586000	0.12
13:54:04.841	1657043644841.000841000	0.12
13:54:05.096	1657043645096.000096000	0.12
13:54:05.354	1657043645354.000354000	0.12
13:54:05.605	1657043645605.000605000	0.12
13:54:05.860	1657043645860.000860000	0.12
13:54:06.115	1657043646115.000115000	0.12
13:54:06.370	1657043646370.000370000	0.12
13:54:06.626	1657043646626.000626000	0.12
13:54:06.881	1657043646881.000881000	0.12
13:54:07.135	1657043647135.000135000	0.12
13:54:07.391	1657043647391.000391000	0.12
13:54:07.642	1657043647642.000642000	0.12
13:54:07.900	1657043647900.000900000	0.12
13:54:08.157	1657043648157.000157000	0.12
13:54:08.412	1657043648412.000412000	0.12
13:54:08.665	1657043648665.000665000	0.12
13:54:08.920	1657043648920.000920000	0.12
13:54:09.175	1657043649175.000175000	0.12
13:54:09.430	1657043649430.000430000	0.14
13:54:09.688	1657043649688.000688000	0.12
13:54:09.940	1657043649940.000940000	0.12
13:54:10.198	1657043650198.000198000	0.12
13:54:10.457	1657043650457.000457000	0.12