Data from 0GT1H_Units14_14-30-51-384.txt Node
Standard Time	Epoch Time	Value
HH:MM:SS:000	(msec since 01/01/1900)
Spectrometer: FLMT01689
Trigger mode: 0
Integration Time (sec): 8.500000E-2
Scans to average: 3
Electric dark correction enabled: true
Nonlinearity correction enabled: false
Boxcar width: 3
XAxis mode: Time
Number of Pixels in Spectrum: 3648
>>>>>Begin Spectral Data<<<<<
14:30:16.257	1656441016257.000257000	0.13
14:30:16.511	1656441016511.000511000	0.13
14:30:16.766	1656441016766.000766000	0.13
14:30:17.021	1656441017021.000021000	0.13
14:30:17.277	1656441017277.000277000	0.13
14:30:17.531	1656441017531.000531000	0.13
14:30:17.786	1656441017786.000786000	0.13
14:30:18.041	1656441018041.000041000	0.13
14:30:18.296	1656441018296.000296000	0.13
14:30:18.551	1656441018551.000551000	0.13
14:30:18.806	1656441018806.000806000	0.13
14:30:19.064	1656441019064.000064000	0.13
14:30:19.318	1656441019318.000318000	0.13
14:30:19.571	1656441019571.000571000	0.13
14:30:19.826	1656441019826.000826000	0.13
14:30:20.081	1656441020081.000081000	0.13
14:30:20.336	1656441020336.000336000	0.13
14:30:20.592	1656441020592.000592000	0.13
14:30:20.846	1656441020846.000846000	0.13
14:30:21.101	1656441021101.000101000	0.13
14:30:21.356	1656441021356.000356000	0.13
14:30:21.614	1656441021614.000614000	0.13
14:30:21.868	1656441021868.000868000	0.13
14:30:22.129	1656441022129.000129000	0.13
14:30:22.377	1656441022377.000377000	0.13
14:30:22.631	1656441022631.000631000	0.13
14:30:22.887	1656441022887.000887000	0.13
14:30:23.140	1656441023140.000140000	0.13
14:30:23.397	1656441023397.000397000	0.13
14:30:23.651	1656441023651.000651000	0.13
14:30:23.907	1656441023907.000907000	0.13
14:30:24.161	1656441024161.000161000	0.14
14:30:24.416	1656441024416.000416000	0.13
14:30:24.672	1656441024672.000672000	0.13
14:30:24.926	1656441024926.000926000	0.13
14:30:25.181	1656441025181.000181000	0.13
14:30:25.436	1656441025436.000436000	0.13
14:30:25.691	1656441025691.000691000	0.13
14:30:25.949	1656441025949.000949000	0.13
14:30:26.201	1656441026201.000201000	0.13
14:30:26.462	1656441026462.000462000	0.13
14:30:26.712	1656441026712.000712000	0.13
14:30:26.967	1656441026967.000967000	0.13
14:30:27.221	1656441027221.000221000	0.13
14:30:27.476	1656441027476.000476000	0.13
14:30:27.731	1656441027731.000731000	0.13
14:30:27.984	1656441027984.000984000	0.13
14:30:28.241	1656441028241.000241000	0.13
14:30:28.496	1656441028496.000496000	0.13
14:30:28.752	1656441028752.000752000	0.13
14:30:29.006	1656441029006.000006000	0.13
14:30:29.261	1656441029261.000261000	0.13
14:30:29.516	1656441029516.000516000	0.13
14:30:29.771	1656441029771.000771000	0.13
14:30:30.027	1656441030027.000027000	0.13
14:30:30.281	1656441030281.000281000	0.13
14:30:30.536	1656441030536.000536000	0.13
14:30:30.791	1656441030791.000791000	0.13
14:30:31.050	1656441031050.000050000	0.13
14:30:31.301	1656441031301.000301000	0.13
14:30:31.556	1656441031556.000556000	0.13
14:30:31.811	1656441031811.000811000	0.13
14:30:32.065	1656441032065.000065000	0.13
14:30:32.322	1656441032322.000322000	0.13
14:30:32.576	1656441032576.000576000	0.13
14:30:32.831	1656441032831.000831000	0.13
14:30:33.085	1656441033085.000085000	0.13
14:30:33.341	1656441033341.000341000	0.13
14:30:33.596	1656441033596.000596000	0.13
14:30:33.851	1656441033851.000851000	0.13
14:30:34.106	1656441034106.000106000	0.13
14:30:34.361	1656441034361.000361000	0.13
14:30:34.616	1656441034616.000616000	0.13
14:30:34.871	1656441034871.000871000	0.13
14:30:35.126	1656441035126.000126000	0.13
14:30:35.378	1656441035378.000378000	0.13
14:30:35.637	1656441035637.000637000	0.13
14:30:35.891	1656441035891.000891000	0.13
14:30:36.149	1656441036149.000149000	0.13
14:30:36.401	1656441036401.000401000	0.13
14:30:36.656	1656441036656.000656000	0.13
14:30:36.911	1656441036911.000911000	0.13
14:30:37.166	1656441037166.000166000	0.13
14:30:37.420	1656441037420.000420000	0.13
14:30:37.676	1656441037676.000676000	0.13
14:30:37.931	1656441037931.000931000	0.13
14:30:38.186	1656441038186.000186000	0.13
14:30:38.442	1656441038442.000442000	0.13
14:30:38.696	1656441038696.000696000	0.13
14:30:38.951	1656441038951.000951000	0.13
14:30:39.207	1656441039207.000207000	0.13
14:30:39.461	1656441039461.000461000	0.13
14:30:39.714	1656441039714.000714000	0.13
14:30:39.971	1656441039971.000971000	0.13
14:30:40.226	1656441040226.000226000	0.13
14:30:40.482	1656441040482.000482000	0.13
14:30:40.737	1656441040737.000737000	0.13
14:30:40.991	1656441040991.000991000	0.13
14:30:41.246	1656441041246.000246000	0.13
14:30:41.501	1656441041501.000501000	0.13
14:30:41.754	1656441041754.000754000	0.13
14:30:42.011	1656441042011.000011000	0.13
14:30:42.266	1656441042266.000266000	0.13
14:30:42.521	1656441042521.000521000	0.13
14:30:42.776	1656441042776.000776000	0.13
14:30:43.032	1656441043032.000032000	0.13
14:30:43.287	1656441043287.000287000	0.13
14:30:43.541	1656441043541.000541000	0.13
14:30:43.797	1656441043797.000797000	0.13
14:30:44.057	1656441044057.000057000	0.13
14:30:44.306	1656441044306.000306000	0.13
14:30:44.561	1656441044561.000561000	0.13
14:30:44.816	1656441044816.000816000	0.13
14:30:45.071	1656441045071.000071000	0.13
14:30:45.327	1656441045327.000327000	0.13
14:30:45.582	1656441045582.000582000	0.13
14:30:45.836	1656441045836.000836000	0.13
14:30:46.090	1656441046090.000090000	0.13
14:30:46.347	1656441046347.000347000	0.13
14:30:46.601	1656441046601.000601000	0.13
14:30:46.857	1656441046857.000857000	0.13
14:30:47.112	1656441047112.000112000	0.13
14:30:47.366	1656441047366.000366000	0.13
14:30:47.621	1656441047621.000621000	0.13
14:30:47.876	1656441047876.000876000	0.13
14:30:48.132	1656441048132.000132000	0.13
14:30:48.386	1656441048386.000386000	0.13
14:30:48.641	1656441048641.000641000	0.13
14:30:48.899	1656441048899.000899000	0.13
14:30:49.151	1656441049151.000151000	0.13
14:30:49.406	1656441049406.000406000	0.13
14:30:49.661	1656441049661.000661000	0.13
14:30:49.916	1656441049916.000916000	0.13
14:30:50.171	1656441050171.000171000	0.13
14:30:50.431	1656441050431.000431000	0.13
14:30:50.681	1656441050681.000681000	0.13
14:30:50.937	1656441050937.000937000	0.13
14:30:51.191	1656441051191.000191000	0.14