Data from 2CX12B_Units14_2.txt Node
Standard Time	Epoch Time	Value
HH:MM:SS:000	(msec since 01/01/1900)
Spectrometer: FLMT01689
Trigger mode: 0
Integration Time (sec): 8.500000E-2
Scans to average: 3
Electric dark correction enabled: true
Nonlinearity correction enabled: false
Boxcar width: 3
XAxis mode: Time
Number of Pixels in Spectrum: 3648
>>>>>Begin Spectral Data<<<<<
17:04:31.910	1656450271910.000910000	0.13
17:04:32.167	1656450272167.000167000	0.14
17:04:32.422	1656450272422.000422000	0.13
17:04:32.677	1656450272677.000677000	0.13
17:04:32.932	1656450272932.000932000	0.13
17:04:33.187	1656450273187.000187000	0.13
17:04:33.442	1656450273442.000442000	0.13
17:04:33.699	1656450273699.000699000	0.13
17:04:33.966	1656450273966.000966000	0.13
17:04:34.205	1656450274205.000205000	0.14
17:04:34.462	1656450274462.000462000	0.13
17:04:34.717	1656450274717.000717000	0.13
17:04:34.969	1656450274969.000969000	0.14
17:04:35.227	1656450275227.000227000	0.13
17:04:35.481	1656450275481.000481000	0.14
17:04:35.739	1656450275739.000739000	0.14
17:04:35.992	1656450275992.000992000	0.13
17:04:36.248	1656450276248.000248000	0.13
17:04:36.502	1656450276502.000502000	0.13
17:04:36.753	1656450276753.000753000	0.13
17:04:37.011	1656450277011.000011000	0.13
17:04:37.267	1656450277267.000267000	0.13
17:04:37.522	1656450277522.000522000	0.13
17:04:37.780	1656450277780.000780000	0.13
17:04:38.031	1656450278031.000031000	0.13
17:04:38.287	1656450278287.000287000	0.13
17:04:38.542	1656450278542.000542000	0.14
17:04:38.806	1656450278806.000806000	0.13
17:04:39.052	1656450279052.000052000	0.13
17:04:39.307	1656450279307.000307000	0.14
17:04:39.562	1656450279562.000562000	0.14
17:04:39.816	1656450279816.000816000	0.14
17:04:40.072	1656450280072.000072000	0.13
17:04:40.346	1656450280346.000346000	0.13
17:04:40.582	1656450280582.000582000	0.13
17:04:40.836	1656450280836.000836000	0.13
17:04:41.093	1656450281093.000093000	0.14
17:04:41.347	1656450281347.000347000	0.14
17:04:41.604	1656450281604.000604000	0.13
17:04:41.859	1656450281859.000859000	0.13
17:04:42.111	1656450282111.000111000	0.13
17:04:42.367	1656450282367.000367000	0.13
17:04:42.622	1656450282622.000622000	0.13
17:04:42.876	1656450282876.000876000	0.14
17:04:43.131	1656450283131.000131000	0.13
17:04:43.387	1656450283387.000387000	0.13
17:04:43.641	1656450283641.000641000	0.13
17:04:43.894	1656450283894.000894000	0.13
17:04:44.151	1656450284151.000151000	0.13
17:04:44.407	1656450284407.000407000	0.13
17:04:44.661	1656450284661.000661000	0.14
17:04:44.917	1656450284917.000917000	0.14
17:04:45.174	1656450285174.000174000	0.13
17:04:45.427	1656450285427.000427000	0.13
17:04:45.682	1656450285682.000682000	0.14
17:04:45.934	1656450285934.000934000	0.13
17:04:46.192	1656450286192.000192000	0.14
17:04:46.447	1656450286447.000447000	0.14
17:04:46.702	1656450286702.000702000	0.13
17:04:46.957	1656450286957.000957000	0.13
17:04:47.212	1656450287212.000212000	0.13
17:04:47.467	1656450287467.000467000	0.13
17:04:47.722	1656450287722.000722000	0.13
17:04:47.977	1656450287977.000977000	0.13
17:04:48.237	1656450288237.000237000	0.13
17:04:48.487	1656450288487.000487000	0.14
17:04:48.742	1656450288742.000742000	0.14
17:04:48.997	1656450288997.000997000	0.13
17:04:49.252	1656450289252.000252000	0.13
17:04:49.507	1656450289507.000507000	0.13
17:04:49.762	1656450289762.000762000	0.13
17:04:50.017	1656450290017.000017000	0.13
17:04:50.275	1656450290275.000275000	0.13
17:04:50.527	1656450290527.000527000	0.13
17:04:50.782	1656450290782.000782000	0.13
17:04:51.037	1656450291037.000037000	0.13
17:04:51.292	1656450291292.000292000	0.13
17:04:51.547	1656450291547.000547000	0.14
17:04:51.802	1656450291802.000802000	0.13
17:04:52.057	1656450292057.000057000	0.13
17:04:52.312	1656450292312.000312000	0.14
17:04:52.567	1656450292567.000567000	0.13
17:04:52.822	1656450292822.000822000	0.13
17:04:53.077	1656450293077.000077000	0.13
17:04:53.330	1656450293330.000330000	0.13
17:04:53.587	1656450293587.000587000	0.14
17:04:53.848	1656450293848.000848000	0.13
17:04:54.097	1656450294097.000097000	0.13
17:04:54.352	1656450294352.000352000	0.14
17:04:54.608	1656450294608.000608000	0.13
17:04:54.862	1656450294862.000862000	0.14
17:04:55.117	1656450295117.000117000	0.14
17:04:55.372	1656450295372.000372000	0.14
17:04:55.627	1656450295627.000627000	0.14
17:04:55.883	1656450295883.000883000	0.13
17:04:56.137	1656450296137.000137000	0.13
17:04:56.392	1656450296392.000392000	0.13
17:04:56.646	1656450296646.000646000	0.13
17:04:56.902	1656450296902.000902000	0.13
17:04:57.157	1656450297157.000157000	0.13
17:04:57.412	1656450297412.000412000	0.14
17:04:57.667	1656450297667.000667000	0.14
17:04:57.921	1656450297921.000921000	0.13
17:04:58.179	1656450298179.000179000	0.13
17:04:58.432	1656450298432.000432000	0.14
17:04:58.687	1656450298687.000687000	0.14
17:04:58.947	1656450298947.000947000	0.13
17:04:59.197	1656450299197.000197000	0.13
17:04:59.452	1656450299452.000452000	0.14
17:04:59.708	1656450299708.000708000	0.13
17:04:59.964	1656450299964.000964000	0.13
17:05:00.217	1656450300217.000217000	0.13
17:05:00.472	1656450300472.000472000	0.14
17:05:00.727	1656450300727.000727000	0.14
17:05:00.982	1656450300982.000982000	0.14
17:05:01.237	1656450301237.000237000	0.13
17:05:01.492	1656450301492.000492000	0.13
17:05:01.747	1656450301747.000747000	0.13
17:05:02.000	1656450302000.000000000	0.14
17:05:02.257	1656450302257.000257000	0.13
17:05:02.512	1656450302512.000512000	0.14
17:05:02.767	1656450302767.000767000	0.14
17:05:03.022	1656450303022.000022000	0.13
17:05:03.277	1656450303277.000277000	0.13
17:05:03.533	1656450303533.000533000	0.13
17:05:03.787	1656450303787.000787000	0.13
17:05:04.041	1656450304041.000041000	0.14
17:05:04.297	1656450304297.000297000	0.13
17:05:04.552	1656450304552.000552000	0.14
17:05:04.812	1656450304812.000812000	0.13
17:05:05.061	1656450305061.000061000	0.13
17:05:05.316	1656450305316.000316000	0.14
17:05:05.569	1656450305569.000569000	0.14
17:05:05.827	1656450305827.000827000	0.14
17:05:06.084	1656450306084.000084000	0.13
17:05:06.337	1656450306337.000337000	0.13
17:05:06.592	1656450306592.000592000	0.13
17:05:06.847	1656450306847.000847000	0.14
17:05:07.108	1656450307108.000108000	0.14
17:05:07.360	1656450307360.000360000	0.13
17:05:07.612	1656450307612.000612000	0.13
17:05:07.872	1656450307872.000872000	0.14
17:05:08.122	1656450308122.000122000	0.13
17:05:08.382	1656450308382.000382000	0.13
17:05:08.638	1656450308638.000638000	0.13
17:05:08.887	1656450308887.000887000	0.14
17:05:09.142	1656450309142.000142000	0.13
17:05:09.397	1656450309397.000397000	0.13
17:05:09.652	1656450309652.000652000	0.14
17:05:09.904	1656450309904.000904000	0.13
17:05:10.162	1656450310162.000162000	0.13
17:05:10.417	1656450310417.000417000	0.13
17:05:10.673	1656450310673.000673000	0.14
17:05:10.934	1656450310934.000934000	0.13
17:05:11.188	1656450311188.000188000	0.13
17:05:11.437	1656450311437.000437000	0.13
17:05:11.692	1656450311692.000692000	0.13
17:05:11.946	1656450311946.000946000	0.13
17:05:12.207	1656450312207.000207000	0.13
17:05:12.459	1656450312459.000459000	0.14
17:05:12.712	1656450312712.000712000	0.14
17:05:12.968	1656450312968.000968000	0.13
17:05:13.223	1656450313223.000223000	0.14
17:05:13.477	1656450313477.000477000	0.13
17:05:14.068	1656450314068.000068000	0.13
17:05:14.245	1656450314245.000245000	0.13
17:05:14.502	1656450314502.000502000	0.14
17:05:14.752	1656450314752.000752000	0.13
17:05:15.019	1656450315019.000019000	0.13
17:05:15.263	1656450315263.000263000	0.13
17:05:15.523	1656450315523.000523000	0.13
17:05:15.771	1656450315771.000771000	0.14
17:05:16.027	1656450316027.000027000	0.13
17:05:16.282	1656450316282.000282000	0.13
17:05:16.538	1656450316538.000538000	0.13
17:05:16.792	1656450316792.000792000	0.14
17:05:17.047	1656450317047.000047000	0.14
17:05:17.302	1656450317302.000302000	0.13
17:05:17.557	1656450317557.000557000	0.13
17:05:17.818	1656450317818.000818000	0.13
17:05:18.067	1656450318067.000067000	0.13
17:05:18.322	1656450318322.0003Data from 2CX12B_Units14_2.txt Node
Standard Time	Epoch Time	Value
HH:MM:SS:000	(msec since 01/01/1900)
Spectrometer: FLMT01689
Trigger mode: 0
Integration Time (sec): 8.500000E-2
Scans to average: 3
Electric dark correction enabled: true
Nonlinearity correction enabled: false
Boxcar width: 3
XAxis mode: Time
Number of Pixels in Spectrum: 3648
>>>>>Begin Spectral Data<<<<<
17:04:31.910	1656450271910.000910000	0.13
17:04:32.167	1656450272167.000167000	0.14
17:04:32.422	1656450272422.000422000	0.13
17:04:32.677	1656450272677.000677000	0.13
17:04:32.932	1656450272932.000932000	0.13
17:04:33.187	1656450273187.000187000	0.13
17:04:33.442	1656450273442.000442000	0.13
17:04:33.699	1656450273699.000699000	0.13
17:04:33.966	1656450273966.000966000	0.13
17:04:34.205	1656450274205.000205000	0.14
17:04:34.462	1656450274462.000462000	0.13
17:04:34.717	1656450274717.000717000	0.13
17:04:34.969	1656450274969.000969000	0.14
17:04:35.227	1656450275227.000227000	0.13
17:04:35.481	1656450275481.000481000	0.14
17:04:35.739	1656450275739.000739000	0.14
17:04:35.992	1656450275992.000992000	0.13
17:04:36.248	1656450276248.000248000	0.13
17:04:36.502	1656450276502.000502000	0.13
17:04:36.753	1656450276753.000753000	0.13
17:04:37.011	1656450277011.000011000	0.13
17:04:37.267	1656450277267.000267000	0.13
17:04:37.522	1656450277522.000522000	0.13
17:04:37.780	1656450277780.000780000	0.13
17:04:38.031	1656450278031.000031000	0.13
17:04:38.287	1656450278287.000287000	0.13
17:04:38.542	1656450278542.000542000	0.14
17:04:38.806	1656450278806.000806000	0.13
17:04:39.052	1656450279052.000052000	0.13
17:04:39.307	1656450279307.000307000	0.14
17:04:39.562	1656450279562.000562000	0.14
17:04:39.816	1656450279816.000816000	0.14
17:04:40.072	1656450280072.000072000	0.13
17:04:40.346	1656450280346.000346000	0.13
17:04:40.582	1656450280582.000582000	0.13
17:04:40.836	1656450280836.000836000	0.13
17:04:41.093	1656450281093.000093000	0.14
17:04:41.347	1656450281347.000347000	0.14
17:04:41.604	1656450281604.000604000	0.13
17:04:41.859	1656450281859.000859000	0.13
17:04:42.111	1656450282111.000111000	0.13
17:04:42.367	1656450282367.000367000	0.13
17:04:42.622	1656450282622.000622000	0.13
17:04:42.876	1656450282876.000876000	0.14
17:04:43.131	1656450283131.000131000	0.13
17:04:43.387	1656450283387.000387000	0.13
17:04:43.641	1656450283641.000641000	0.13
17:04:43.894	1656450283894.000894000	0.13
17:04:44.151	1656450284151.000151000	0.13
17:04:44.407	1656450284407.000407000	0.13
17:04:44.661	1656450284661.000661000	0.14
17:04:44.917	1656450284917.000917000	0.14
17:04:45.174	1656450285174.000174000	0.13
17:04:45.427	1656450285427.000427000	0.13
17:04:45.682	1656450285682.000682000	0.14
17:04:45.934	1656450285934.000934000	0.13
17:04:46.192	1656450286192.000192000	0.14
17:04:46.447	1656450286447.000447000	0.14
17:04:46.702	1656450286702.000702000	0.13
17:04:46.957	1656450286957.000957000	0.13
17:04:47.212	1656450287212.000212000	0.13
17:04:47.467	1656450287467.000467000	0.13
17:04:47.722	1656450287722.000722000	0.13
17:04:47.977	1656450287977.000977000	0.13
17:04:48.237	1656450288237.000237000	0.13
17:04:48.487	1656450288487.000487000	0.14
17:04:48.742	1656450288742.000742000	0.14
17:04:48.997	1656450288997.000997000	0.13
17:04:49.252	1656450289252.000252000	0.13
17:04:49.507	1656450289507.000507000	0.13
17:04:49.762	1656450289762.000762000	0.13
17:04:50.017	1656450290017.000017000	0.13
17:04:50.275	1656450290275.000275000	0.13
17:04:50.527	1656450290527.000527000	0.13
17:04:50.782	1656450290782.000782000	0.13
17:04:51.037	1656450291037.000037000	0.13
17:04:51.292	1656450291292.000292000	0.13
17:04:51.547	1656450291547.000547000	0.14
17:04:51.802	1656450291802.000802000	0.13
17:04:52.057	1656450292057.000057000	0.13
17:04:52.312	1656450292312.000312000	0.14
17:04:52.567	1656450292567.000567000	0.13
17:04:52.822	1656450292822.000822000	0.13
17:04:53.077	1656450293077.000077000	0.13
17:04:53.330	1656450293330.000330000	0.13
17:04:53.587	1656450293587.000587000	0.14
17:04:53.848	1656450293848.000848000	0.13
17:04:54.097	1656450294097.000097000	0.13
17:04:54.352	1656450294352.000352000	0.14
17:04:54.608	1656450294608.000608000	0.13
17:04:54.862	1656450294862.000862000	0.14
17:04:55.117	1656450295117.000117000	0.14
17:04:55.372	1656450295372.000372000	0.14
17:04:55.627	1656450295627.000627000	0.14
17:04:55.883	1656450295883.000883000	0.13
17:04:56.137	1656450296137.000137000	0.13
17:04:56.392	1656450296392.000392000	0.13
17:04:56.646	1656450296646.000646000	0.13
17:04:56.902	1656450296902.000902000	0.13
17:04:57.157	1656450297157.000157000	0.13
17:04:57.412	1656450297412.000412000	0.14
17:04:57.667	1656450297667.000667000	0.14
17:04:57.921	1656450297921.000921000	0.13
17:04:58.179	1656450298179.000179000	0.13
17:04:58.432	1656450298432.000432000	0.14
17:04:58.687	1656450298687.000687000	0.14
17:04:58.947	1656450298947.000947000	0.13
17:04:59.197	1656450299197.000197000	0.13
17:04:59.452	1656450299452.000452000	0.14
17:04:59.708	1656450299708.000708000	0.13
17:04:59.964	1656450299964.000964000	0.13
17:05:00.217	1656450300217.000217000	0.13
17:05:00.472	1656450300472.000472000	0.14
17:05:00.727	1656450300727.000727000	0.14
17:05:00.982	1656450300982.000982000	0.14
17:05:01.237	1656450301237.000237000	0.13
17:05:01.492	1656450301492.000492000	0.13
17:05:01.747	1656450301747.000747000	0.13
17:05:02.000	1656450302000.000000000	0.14
17:05:02.257	1656450302257.000257000	0.13
17:05:02.512	1656450302512.000512000	0.14
17:05:02.767	1656450302767.000767000	0.14
17:05:03.022	1656450303022.000022000	0.13
17:05:03.277	1656450303277.000277000	0.13
17:05:03.533	1656450303533.000533000	0.13
17:05:03.787	1656450303787.000787000	0.13
17:05:04.041	1656450304041.000041000	0.14
17:05:04.297	1656450304297.000297000	0.13
17:05:04.552	1656450304552.000552000	0.14
17:05:04.812	1656450304812.000812000	0.13
17:05:05.061	1656450305061.000061000	0.13
17:05:05.316	1656450305316.000316000	0.14
17:05:05.569	1656450305569.000569000	0.14
17:05:05.827	1656450305827.000827000	0.14
17:05:06.084	1656450306084.000084000	0.13
17:05:06.337	1656450306337.000337000	0.13
17:05:06.592	1656450306592.000592000	0.13
17:05:06.847	1656450306847.000847000	0.14
17:05:07.108	1656450307108.000108000	0.14
17:05:07.360	1656450307360.000360000	0.13
17:05:07.612	1656450307612.000612000	0.13
17:05:07.872	1656450307872.000872000	0.14
17:05:08.122	1656450308122.000122000	0.13
17:05:08.382	1656450308382.000382000	0.13
17:05:08.638	1656450308638.000638000	0.13
17:05:08.887	1656450308887.000887000	0.14
17:05:09.142	1656450309142.000142000	0.13
17:05:09.397	1656450309397.000397000	0.13
17:05:09.652	1656450309652.000652000	0.14
17:05:09.904	1656450309904.000904000	0.13
17:05:10.162	1656450310162.000162000	0.13
17:05:10.417	1656450310417.000417000	0.13
17:05:10.673	1656450310673.000673000	0.14
17:05:10.934	1656450310934.000934000	0.13
17:05:11.188	1656450311188.000188000	0.13
17:05:11.437	1656450311437.000437000	0.13
17:05:11.692	1656450311692.000692000	0.13
17:05:11.946	1656450311946.000946000	0.13
17:05:12.207	1656450312207.000207000	0.13
17:05:12.459	1656450312459.000459000	0.14
17:05:12.712	1656450312712.000712000	0.14
17:05:12.968	1656450312968.000968000	0.13
17:05:13.223	1656450313223.000223000	0.14
17:05:13.477	1656450313477.000477000	0.13
17:05:14.068	1656450314068.000068000	0.13
17:05:14.245	1656450314245.000245000	0.13
17:05:14.502	1656450314502.000502000	0.14
17:05:14.752	1656450314752.000752000	0.13
17:05:15.019	1656450315019.000019000	0.13
17:05:15.263	1656450315263.000263000	0.13
17:05:15.523	1656450315523.000523000	0.13
17:05:15.771	1656450315771.000771000	0.14
17:05:16.027	1656450316027.000027000	0.13
17:05:16.282	1656450316282.000282000	0.13
17:05:16.538	1656450316538.000538000	0.13
17:05:16.792	1656450316792.000792000	0.14
17:05:17.047	1656450317047.000047000	0.14
17:05:17.302	1656450317302.000302000	0.13
17:05:17.557	1656450317557.000557000	0.13
17:05:17.818	1656450317818.000818000	0.13
17:05:18.067	1656450318067.000067000	0.13
17:05:18.322	1656450318322.000322000	0.13
17:05:18.577	1656450318577.000577000	0.14
17:05:18.834	1656450318834.000834000	0.13
17:05:19.089	1656450319089.000089000	0.13
17:05:19.342	1656450319342.000342000	0.13
17:05:19.594	1656450319594.000594000	0.14
17:05:19.852	1656450319852.000852000	0.13
17:05:20.107	1656450320107.000107000	0.13
17:05:20.362	1656450320362.000362000	0.13
17:05:20.617	1656450320617.000617000	0.13
17:05:20.873	1656450320873.000873000	0.13
17:05:21.137	1656450321137.000137000	0.14
17:05:21.382	1656450321382.000382000	0.14
17:05:21.637	1656450321637.000637000	0.13
17:05:21.892	1656450321892.000892000	0.14
17:05:22.147	1656450322147.000147000	0.13
17:05:22.402	1656450322402.000402000	0.14
17:05:22.657	1656450322657.000657000	0.13
17:05:22.916	1656450322916.000916000	0.14
17:05:23.164	1656450323164.000164000	0.14
17:05:23.428	1656450323428.000428000	0.14
17:05:23.677	1656450323677.000677000	0.13
17:05:23.937	1656450323937.000937000	0.13
17:05:24.192	1656450324192.000192000	0.13
17:05:24.449	1656450324449.000449000	0.13
17:05:24.697	1656450324697.000697000	0.13
17:05:24.952	1656450324952.000952000	0.14
17:05:25.204	1656450325204.000204000	0.14
17:05:25.462	1656450325462.000462000	0.13
17:05:25.721	1656450325721.000721000	0.13
17:05:25.972	1656450325972.000972000	0.13
17:05:26.227	1656450326227.000227000	0.13
17:05:26.483	1656450326483.000483000	0.13
17:05:26.737	1656450326737.000737000	0.14
17:05:26.989	1656450326989.000989000	0.13
17:05:27.247	1656450327247.000247000	0.14
17:05:27.508	1656450327508.000508000	0.13
17:05:27.759	1656450327759.000759000	0.14
17:05:28.012	1656450328012.000012000	0.14
17:05:28.273	1656450328273.000273000	0.13
17:05:28.608	1656450328608.000608000	0.13
17:05:28.862	1656450328862.000862000	0.13
17:05:29.119	1656450329119.000119000	0.13