Data from 9CX6B_Units14_1.txt Node
Standard Time	Epoch Time	Value
HH:MM:SS:000	(msec since 01/01/1900)
Spectrometer: FLMT01689
Trigger mode: 0
Integration Time (sec): 1.000000E-1
Scans to average: 3
Electric dark correction enabled: true
Nonlinearity correction enabled: false
Boxcar width: 3
XAxis mode: Time
Number of Pixels in Spectrum: 3648
>>>>>Begin Spectral Data<<<<<
16:34:19.787	1656794059787.000787000	0.11
16:34:20.086	1656794060086.000086000	0.11
16:34:20.386	1656794060386.000386000	0.12
16:34:20.687	1656794060687.000687000	0.11
16:34:20.986	1656794060986.000986000	0.11
16:34:21.287	1656794061287.000287000	0.11
16:34:21.586	1656794061586.000586000	0.12
16:34:21.885	1656794061885.000885000	0.11
16:34:22.283	1656794062283.000283000	0.11
16:34:22.596	1656794062596.000596000	0.11
16:34:22.887	1656794062887.000887000	0.11
16:34:23.183	1656794063183.000183000	0.12
16:34:23.486	1656794063486.000486000	0.11
16:34:23.777	1656794063777.000777000	0.12
16:34:24.086	1656794064086.000086000	0.11
16:34:24.386	1656794064386.000386000	0.11
16:34:24.687	1656794064687.000687000	0.11
16:34:24.986	1656794064986.000986000	0.11
16:34:25.286	1656794065286.000286000	0.12
16:34:25.586	1656794065586.000586000	0.11
16:34:25.887	1656794065887.000887000	0.11
16:34:26.181	1656794066181.000181000	0.11
16:34:26.487	1656794066487.000487000	0.12
16:34:26.786	1656794066786.000786000	0.12
16:34:27.083	1656794067083.000083000	0.11
16:34:27.387	1656794067387.000387000	0.12
16:34:27.687	1656794067687.000687000	0.11
16:34:27.986	1656794067986.000986000	0.11
16:34:28.286	1656794068286.000286000	0.11
16:34:28.586	1656794068586.000586000	0.11
16:34:28.886	1656794068886.000886000	0.11
16:34:29.178	1656794069178.000178000	0.12
16:34:29.486	1656794069486.000486000	0.11
16:34:29.786	1656794069786.000786000	0.12
16:34:30.086	1656794070086.000086000	0.11
16:34:30.386	1656794070386.000386000	0.11
16:34:30.686	1656794070686.000686000	0.11
16:34:30.986	1656794070986.000986000	0.11
16:34:31.287	1656794071287.000287000	0.11
16:34:31.586	1656794071586.000586000	0.11
16:34:31.878	1656794071878.000878000	0.11
16:34:32.179	1656794072179.000179000	0.11
16:34:32.486	1656794072486.000486000	0.11
16:34:32.787	1656794072787.000787000	0.11
16:34:33.086	1656794073086.000086000	0.11
16:34:33.387	1656794073387.000387000	0.11
16:34:33.687	1656794073687.000687000	0.11
16:34:33.987	1656794073987.000987000	0.11
16:34:34.286	1656794074286.000286000	0.11
16:34:34.578	1656794074578.000578000	0.11
16:34:34.879	1656794074879.000879000	0.11
16:34:35.186	1656794075186.000186000	0.11
16:34:35.486	1656794075486.000486000	0.11
16:34:35.781	1656794075781.000781000	0.11
16:34:36.086	1656794076086.000086000	0.12
16:34:36.386	1656794076386.000386000	0.11
16:34:36.686	1656794076686.000686000	0.11
16:34:36.986	1656794076986.000986000	0.11
16:34:37.286	1656794077286.000286000	0.11
16:34:37.586	1656794077586.000586000	0.12
16:34:37.887	1656794077887.000887000	0.11
16:34:38.178	1656794078178.000178000	0.11
16:34:38.487	1656794078487.000487000	0.11
16:34:38.786	1656794078786.000786000	0.12
16:34:39.087	1656794079087.000087000	0.11
16:34:39.386	1656794079386.000386000	0.11
16:34:39.686	1656794079686.000686000	0.11
16:34:39.987	1656794079987.000987000	0.11
16:34:40.280	1656794080280.000280000	0.11
16:34:40.586	1656794080586.000586000	0.11
16:34:40.886	1656794080886.000886000	0.11
16:34:41.187	1656794081187.000187000	0.11
16:34:41.486	1656794081486.000486000	0.11
16:34:41.786	1656794081786.000786000	0.11
16:34:42.084	1656794082084.000084000	0.12
16:34:42.386	1656794082386.000386000	0.12
16:34:42.686	1656794082686.000686000	0.11
16:34:42.986	1656794082986.000986000	0.12
16:34:43.286	1656794083286.000286000	0.12
16:34:43.586	1656794083586.000586000	0.11
16:34:43.886	1656794083886.000886000	0.12
16:34:44.182	1656794084182.000182000	0.11
16:34:44.480	1656794084480.000480000	0.11
16:34:44.786	1656794084786.000786000	0.11
16:34:45.086	1656794085086.000086000	0.11
16:34:45.386	1656794085386.000386000	0.11
16:34:45.687	1656794085687.000687000	0.12
16:34:45.986	1656794085986.000986000	0.11
16:34:46.286	1656794086286.000286000	0.11
16:34:46.586	1656794086586.000586000	0.11
16:34:46.886	1656794086886.000886000	0.11
16:34:47.186	1656794087186.000186000	0.11
16:34:47.487	1656794087487.000487000	0.11
16:34:47.786	1656794087786.000786000	0.11
16:34:48.087	1656794088087.000087000	0.11
16:34:48.386	1656794088386.000386000	0.11
16:34:48.686	1656794088686.000686000	0.12
16:34:48.984	1656794088984.000984000	0.11
16:34:49.287	1656794089287.000287000	0.12
16:34:49.587	1656794089587.000587000	0.11
16:34:49.886	1656794089886.000886000	0.11
16:34:50.179	1656794090179.000179000	0.12
16:34:50.486	1656794090486.000486000	0.12
16:34:50.787	1656794090787.000787000	0.11
16:34:51.087	1656794091087.000087000	0.11
16:34:51.386	1656794091386.000386000	0.11
16:34:51.687	1656794091687.000687000	0.11
16:34:51.986	1656794091986.000986000	0.11
16:34:52.287	1656794092287.000287000	0.12
16:34:52.586	1656794092586.000586000	0.12
16:34:52.886	1656794092886.000886000	0.12
16:34:53.178	1656794093178.000178000	0.12
16:34:53.486	1656794093486.000486000	0.12
16:34:53.786	1656794093786.000786000	0.11
16:34:54.086	1656794094086.000086000	0.11
16:34:54.386	1656794094386.000386000	0.12
16:34:54.686	1656794094686.000686000	0.11
16:34:54.986	1656794094986.000986000	0.12
16:34:55.286	1656794095286.000286000	0.11
16:34:55.586	1656794095586.000586000	0.11
16:34:55.886	1656794095886.000886000	0.11
16:34:56.181	1656794096181.000181000	0.12
16:34:56.486	1656794096486.000486000	0.12
16:34:56.786	1656794096786.000786000	0.11
16:34:57.086	1656794097086.000086000	0.11
16:34:57.386	1656794097386.000386000	0.11
16:34:57.683	1656794097683.000683000	0.11
16:34:57.986	1656794097986.000986000	0.11
16:34:58.282	1656794098282.000282000	0.11
16:34:58.586	1656794098586.000586000	0.12
16:34:58.886	1656794098886.000886000	0.11
16:34:59.187	1656794099187.000187000	0.11
16:34:59.487	1656794099487.000487000	0.11
16:34:59.786	1656794099786.000786000	0.11