Data from 0CX5_Units14_2.txt Node
Standard Time	Epoch Time	Value
HH:MM:SS:000	(msec since 01/01/1900)
Spectrometer: FLMT01689
Trigger mode: 0
Integration Time (sec): 8.500000E-2
Scans to average: 3
Electric dark correction enabled: true
Nonlinearity correction enabled: false
Boxcar width: 3
XAxis mode: Time
Number of Pixels in Spectrum: 3648
>>>>>Begin Spectral Data<<<<<
14:07:44.835	1656526064835.000835000	0.12
14:07:45.099	1656526065099.000099000	0.12
14:07:45.347	1656526065347.000347000	0.12
14:07:45.605	1656526065605.000605000	0.12
14:07:45.857	1656526065857.000857000	0.12
14:07:46.112	1656526066112.000112000	0.12
14:07:46.368	1656526066368.000368000	0.12
14:07:46.623	1656526066623.000623000	0.12
14:07:46.878	1656526066878.000878000	0.12
14:07:47.132	1656526067132.000132000	0.12
14:07:47.387	1656526067387.000387000	0.14
14:07:47.640	1656526067640.000640000	0.12
14:07:47.903	1656526067903.000903000	0.12
14:07:48.154	1656526068154.000154000	0.12
14:07:48.407	1656526068407.000407000	0.12
14:07:48.914	1656526068662.000662000	0.12
14:07:48.917	1656526068917.000917000	0.12
14:07:49.178	1656526069178.000178000	0.12
14:07:49.427	1656526069427.000427000	0.12
14:07:49.682	1656526069682.000682000	0.12
14:07:49.937	1656526069937.000937000	0.12
14:07:50.192	1656526070192.000192000	0.12
14:07:50.448	1656526070448.000448000	0.12
14:07:50.703	1656526070703.000703000	0.12
14:07:50.958	1656526070958.000958000	0.12
14:07:51.218	1656526071218.000218000	0.12
14:07:51.468	1656526071468.000468000	0.12
14:07:51.722	1656526071722.000722000	0.12
14:07:51.977	1656526071977.000977000	0.12
14:07:52.238	1656526072238.000238000	0.12
14:07:52.487	1656526072487.000487000	0.12
14:07:52.742	1656526072742.000742000	0.12
14:07:52.998	1656526072998.000998000	0.12
14:07:53.253	1656526073253.000253000	0.12
14:07:53.508	1656526073508.000508000	0.12
14:07:53.763	1656526073763.000763000	0.12
14:07:54.017	1656526074017.000017000	0.12
14:07:54.272	1656526074272.000272000	0.12
14:07:54.528	1656526074528.000528000	0.12
14:07:54.783	1656526074783.000783000	0.12
14:07:55.037	1656526075037.000037000	0.12
14:07:55.292	1656526075292.000292000	0.12
14:07:55.547	1656526075547.000547000	0.12
14:07:55.803	1656526075803.000803000	0.12
14:07:56.057	1656526076057.000057000	0.12
14:07:56.313	1656526076313.000313000	0.12
14:07:56.568	1656526076568.000568000	0.12
14:07:56.823	1656526076823.000823000	0.12
14:07:57.083	1656526077083.000083000	0.12
14:07:57.332	1656526077332.000332000	0.12
14:07:57.587	1656526077587.000587000	0.12
14:07:57.843	1656526077843.000843000	0.12
14:07:58.096	1656526078096.000096000	0.12
14:07:58.352	1656526078352.000352000	0.12
14:07:58.607	1656526078607.000607000	0.12
14:07:58.862	1656526078862.000862000	0.12
14:07:59.118	1656526079118.000118000	0.12
14:07:59.372	1656526079372.000372000	0.12
14:07:59.627	1656526079627.000627000	0.12
14:07:59.883	1656526079883.000883000	0.12
14:08:00.138	1656526080138.000138000	0.12
14:08:00.393	1656526080393.000393000	0.12
14:08:00.647	1656526080647.000647000	0.12
14:08:00.902	1656526080902.000902000	0.12
14:08:01.158	1656526081158.000158000	0.12
14:08:01.412	1656526081412.000412000	0.12
14:08:01.668	1656526081668.000668000	0.12
14:08:01.923	1656526081923.000923000	0.12
14:08:02.177	1656526082177.000177000	0.12
14:08:02.433	1656526082433.000433000	0.12
14:08:02.687	1656526082687.000687000	0.12
14:08:02.942	1656526082942.000942000	0.12
14:08:03.197	1656526083197.000197000	0.12
14:08:03.452	1656526083452.000452000	0.12
14:08:03.707	1656526083707.000707000	0.12
14:08:03.960	1656526083960.000960000	0.12
14:08:04.217	1656526084217.000217000	0.12
14:08:04.471	1656526084471.000471000	0.12
14:08:04.728	1656526084728.000728000	0.12
14:08:04.984	1656526084984.000984000	0.12
14:08:05.237	1656526085237.000237000	0.12
14:08:05.492	1656526085492.000492000	0.12
14:08:05.748	1656526085748.000748000	0.12
14:08:06.003	1656526086003.000003000	0.12
14:08:06.258	1656526086258.000258000	0.12
14:08:06.513	1656526086513.000513000	0.12
14:08:06.770	1656526086770.000770000	0.12
14:08:07.022	1656526087022.000022000	0.12
14:08:07.277	1656526087277.000277000	0.12
14:08:07.533	1656526087533.000533000	0.12
14:08:07.794	1656526087794.000794000	0.12
14:08:08.043	1656526088043.000043000	0.12
14:08:08.297	1656526088297.000297000	0.12
14:08:08.552	1656526088552.000552000	0.12
14:08:08.811	1656526088811.000811000	0.12
14:08:09.063	1656526089063.000063000	0.12
14:08:09.317	1656526089317.000317000	0.12
14:08:09.572	1656526089572.000572000	0.12
14:08:09.829	1656526089829.000829000	0.12
14:08:10.082	1656526090082.000082000	0.12
14:08:10.337	1656526090337.000337000	0.12
14:08:10.593	1656526090593.000593000	0.12
14:08:10.848	1656526090848.000848000	0.12
14:08:11.105	1656526091105.000105000	0.12
14:08:11.357	1656526091357.000357000	0.12
14:08:11.613	1656526091613.000613000	0.12
14:08:11.868	1656526091868.000868000	0.12
14:08:12.122	1656526092122.000122000	0.12
14:08:12.377	1656526092377.000377000	0.12
14:08:12.632	1656526092632.000632000	0.12
14:08:12.888	1656526092888.000888000	0.12
14:08:13.144	1656526093144.000144000	0.12
14:08:13.397	1656526093397.000397000	0.12
14:08:13.652	1656526093652.000652000	0.12
14:08:13.909	1656526093909.000909000	0.12
14:08:14.162	1656526094162.000162000	0.12
14:08:14.417	1656526094417.000417000	0.12
14:08:14.673	1656526094673.000673000	0.12
14:08:14.928	1656526094928.000928000	0.12
14:08:15.183	1656526095183.000183000	0.12
14:08:15.438	1656526095438.000438000	0.12
14:08:15.693	1656526095693.000693000	0.12
14:08:15.946	1656526095946.000946000	0.12
14:08:16.203	1656526096203.000203000	0.12
14:08:16.458	1656526096458.000458000	0.12
14:08:16.713	1656526096713.000713000	0.12
14:08:16.968	1656526096968.000968000	0.12
14:08:17.222	1656526097222.000222000	0.12
14:08:17.483	1656526097483.000483000	0.12
14:08:17.733	1656526097733.000733000	0.12
14:08:17.988	1656526097988.000988000	0.12
14:08:18.243	1656526098243.000243000	0.12
14:08:18.497	1656526098497.000497000	0.12
14:08:18.753	1656526098753.000753000	0.12
14:08:19.008	1656526099008.000008000	0.12
14:08:19.263	1656526099263.000263000	0.12
14:08:19.518	1656526099518.000518000	0.12
14:08:19.773	1656526099773.000773000	0.12
14:08:20.032	1656526100032.000032000	0.12
14:08:20.281	1656526100281.000281000	0.12
14:08:20.540	1656526100540.000540000	0.12
14:08:20.794	1656526100794.000794000	0.12
14:08:21.048	1656526101048.000048000	0.12
14:08:21.302	1656526101302.000302000	0.12
14:08:21.563	1656526101563.000563000	0.13
14:08:21.813	1656526101813.000813000	0.12
14:08:22.071	1656526102071.000071000	0.12
14:08:22.323	1656526102323.000323000	0.12
14:08:22.581	1656526102581.000581000	0.12
14:08:22.833	1656526102833.000833000	0.12
14:08:23.089	1656526103089.000089000	0.12
14:08:23.342	1656526103342.000342000	0.12
14:08:23.598	1656526103598.000598000	0.12
14:08:23.853	1656526103853.000853000	0.12
14:08:24.114	1656526104114.000114000	0.12
14:08:24.548	1656526104548.000548000	0.12
14:08:24.798	1656526104798.000798000	0.12
14:08:25.064	1656526105064.000064000	0.12
14:08:25.395	1656526105395.000395000	0.12
14:08:25.644	1656526105644.000644000	0.12
14:08:25.900	1656526105900.000900000	0.12
14:08:26.152	1656526106152.000152000	0.12
14:08:26.414	1656526106414.000414000	0.12
14:08:26.664	1656526106664.000664000	0.12
14:08:26.914	1656526106914.000914000	0.12
14:08:27.167	1656526107167.000167000	0.12
14:08:27.423	1656526107423.000423000	0.12
14:08:27.677	1656526107677.000677000	0.12
14:08:27.933	1656526107933.000933000	0.12
14:08:28.193	1656526108193.000193000	0.12
14:08:28.448	1656526108448.000448000	0.12
14:08:28.703	1656526108703.000703000	0.12
14:08:28.950	1656526108950.000950000	0.12
14:08:29.208	1656526109208.000208000	0.12
14:08:29.462	1656526109462.000462000	0.12
14:08:29.718	1656526109718.000718000	0.12
14:08:29.975	1656526109975.000975000	0.12
14:08:30.228	1656526110228.000228000	0.12
14:08:30.487	1656526110487.000487000	0.12
14:08:30.738	1656526110738.000738000	0.12
14:08:30.998	1656526110998.000998000	0.13
14:08:31.252	1656526111252.000252Data from 0CX5_Units14_2.txt Node
Standard Time	Epoch Time	Value
HH:MM:SS:000	(msec since 01/01/1900)
Spectrometer: FLMT01689
Trigger mode: 0
Integration Time (sec): 8.500000E-2
Scans to average: 3
Electric dark correction enabled: true
Nonlinearity correction enabled: false
Boxcar width: 3
XAxis mode: Time
Number of Pixels in Spectrum: 3648
>>>>>Begin Spectral Data<<<<<
14:07:44.835	1656526064835.000835000	0.12
14:07:45.099	1656526065099.000099000	0.12
14:07:45.347	1656526065347.000347000	0.12
14:07:45.605	1656526065605.000605000	0.12
14:07:45.857	1656526065857.000857000	0.12
14:07:46.112	1656526066112.000112000	0.12
14:07:46.368	1656526066368.000368000	0.12
14:07:46.623	1656526066623.000623000	0.12
14:07:46.878	1656526066878.000878000	0.12
14:07:47.132	1656526067132.000132000	0.12
14:07:47.387	1656526067387.000387000	0.14
14:07:47.640	1656526067640.000640000	0.12
14:07:47.903	1656526067903.000903000	0.12
14:07:48.154	1656526068154.000154000	0.12
14:07:48.407	1656526068407.000407000	0.12
14:07:48.914	1656526068662.000662000	0.12
14:07:48.917	1656526068917.000917000	0.12
14:07:49.178	1656526069178.000178000	0.12
14:07:49.427	1656526069427.000427000	0.12
14:07:49.682	1656526069682.000682000	0.12
14:07:49.937	1656526069937.000937000	0.12
14:07:50.192	1656526070192.000192000	0.12
14:07:50.448	1656526070448.000448000	0.12
14:07:50.703	1656526070703.000703000	0.12
14:07:50.958	1656526070958.000958000	0.12
14:07:51.218	1656526071218.000218000	0.12
14:07:51.468	1656526071468.000468000	0.12
14:07:51.722	1656526071722.000722000	0.12
14:07:51.977	1656526071977.000977000	0.12
14:07:52.238	1656526072238.000238000	0.12
14:07:52.487	1656526072487.000487000	0.12
14:07:52.742	1656526072742.000742000	0.12
14:07:52.998	1656526072998.000998000	0.12
14:07:53.253	1656526073253.000253000	0.12
14:07:53.508	1656526073508.000508000	0.12
14:07:53.763	1656526073763.000763000	0.12
14:07:54.017	1656526074017.000017000	0.12
14:07:54.272	1656526074272.000272000	0.12
14:07:54.528	1656526074528.000528000	0.12
14:07:54.783	1656526074783.000783000	0.12
14:07:55.037	1656526075037.000037000	0.12
14:07:55.292	1656526075292.000292000	0.12
14:07:55.547	1656526075547.000547000	0.12
14:07:55.803	1656526075803.000803000	0.12
14:07:56.057	1656526076057.000057000	0.12
14:07:56.313	1656526076313.000313000	0.12
14:07:56.568	1656526076568.000568000	0.12
14:07:56.823	1656526076823.000823000	0.12
14:07:57.083	1656526077083.000083000	0.12
14:07:57.332	1656526077332.000332000	0.12
14:07:57.587	1656526077587.000587000	0.12
14:07:57.843	1656526077843.000843000	0.12
14:07:58.096	1656526078096.000096000	0.12
14:07:58.352	1656526078352.000352000	0.12
14:07:58.607	1656526078607.000607000	0.12
14:07:58.862	1656526078862.000862000	0.12
14:07:59.118	1656526079118.000118000	0.12
14:07:59.372	1656526079372.000372000	0.12
14:07:59.627	1656526079627.000627000	0.12
14:07:59.883	1656526079883.000883000	0.12
14:08:00.138	1656526080138.000138000	0.12
14:08:00.393	1656526080393.000393000	0.12
14:08:00.647	1656526080647.000647000	0.12
14:08:00.902	1656526080902.000902000	0.12
14:08:01.158	1656526081158.000158000	0.12
14:08:01.412	1656526081412.000412000	0.12
14:08:01.668	1656526081668.000668000	0.12
14:08:01.923	1656526081923.000923000	0.12
14:08:02.177	1656526082177.000177000	0.12
14:08:02.433	1656526082433.000433000	0.12
14:08:02.687	1656526082687.000687000	0.12
14:08:02.942	1656526082942.000942000	0.12
14:08:03.197	1656526083197.000197000	0.12
14:08:03.452	1656526083452.000452000	0.12
14:08:03.707	1656526083707.000707000	0.12
14:08:03.960	1656526083960.000960000	0.12
14:08:04.217	1656526084217.000217000	0.12
14:08:04.471	1656526084471.000471000	0.12
14:08:04.728	1656526084728.000728000	0.12
14:08:04.984	1656526084984.000984000	0.12
14:08:05.237	1656526085237.000237000	0.12
14:08:05.492	1656526085492.000492000	0.12
14:08:05.748	1656526085748.000748000	0.12
14:08:06.003	1656526086003.000003000	0.12
14:08:06.258	1656526086258.000258000	0.12
14:08:06.513	1656526086513.000513000	0.12
14:08:06.770	1656526086770.000770000	0.12
14:08:07.022	1656526087022.000022000	0.12
14:08:07.277	1656526087277.000277000	0.12
14:08:07.533	1656526087533.000533000	0.12
14:08:07.794	1656526087794.000794000	0.12
14:08:08.043	1656526088043.000043000	0.12
14:08:08.297	1656526088297.000297000	0.12
14:08:08.552	1656526088552.000552000	0.12
14:08:08.811	1656526088811.000811000	0.12
14:08:09.063	1656526089063.000063000	0.12
14:08:09.317	1656526089317.000317000	0.12
14:08:09.572	1656526089572.000572000	0.12
14:08:09.829	1656526089829.000829000	0.12
14:08:10.082	1656526090082.000082000	0.12
14:08:10.337	1656526090337.000337000	0.12
14:08:10.593	1656526090593.000593000	0.12
14:08:10.848	1656526090848.000848000	0.12
14:08:11.105	1656526091105.000105000	0.12
14:08:11.357	1656526091357.000357000	0.12
14:08:11.613	1656526091613.000613000	0.12
14:08:11.868	1656526091868.000868000	0.12
14:08:12.122	1656526092122.000122000	0.12
14:08:12.377	1656526092377.000377000	0.12
14:08:12.632	1656526092632.000632000	0.12
14:08:12.888	1656526092888.000888000	0.12
14:08:13.144	1656526093144.000144000	0.12
14:08:13.397	1656526093397.000397000	0.12
14:08:13.652	1656526093652.000652000	0.12
14:08:13.909	1656526093909.000909000	0.12
14:08:14.162	1656526094162.000162000	0.12
14:08:14.417	1656526094417.000417000	0.12
14:08:14.673	1656526094673.000673000	0.12
14:08:14.928	1656526094928.000928000	0.12
14:08:15.183	1656526095183.000183000	0.12
14:08:15.438	1656526095438.000438000	0.12
14:08:15.693	1656526095693.000693000	0.12
14:08:15.946	1656526095946.000946000	0.12
14:08:16.203	1656526096203.000203000	0.12
14:08:16.458	1656526096458.000458000	0.12
14:08:16.713	1656526096713.000713000	0.12
14:08:16.968	1656526096968.000968000	0.12
14:08:17.222	1656526097222.000222000	0.12
14:08:17.483	1656526097483.000483000	0.12
14:08:17.733	1656526097733.000733000	0.12
14:08:17.988	1656526097988.000988000	0.12
14:08:18.243	1656526098243.000243000	0.12
14:08:18.497	1656526098497.000497000	0.12
14:08:18.753	1656526098753.000753000	0.12
14:08:19.008	1656526099008.000008000	0.12
14:08:19.263	1656526099263.000263000	0.12
14:08:19.518	1656526099518.000518000	0.12
14:08:19.773	1656526099773.000773000	0.12
14:08:20.032	1656526100032.000032000	0.12
14:08:20.281	1656526100281.000281000	0.12
14:08:20.540	1656526100540.000540000	0.12
14:08:20.794	1656526100794.000794000	0.12
14:08:21.048	1656526101048.000048000	0.12
14:08:21.302	1656526101302.000302000	0.12
14:08:21.563	1656526101563.000563000	0.13
14:08:21.813	1656526101813.000813000	0.12
14:08:22.071	1656526102071.000071000	0.12
14:08:22.323	1656526102323.000323000	0.12
14:08:22.581	1656526102581.000581000	0.12
14:08:22.833	1656526102833.000833000	0.12
14:08:23.089	1656526103089.000089000	0.12
14:08:23.342	1656526103342.000342000	0.12
14:08:23.598	1656526103598.000598000	0.12
14:08:23.853	1656526103853.000853000	0.12
14:08:24.114	1656526104114.000114000	0.12
14:08:24.548	1656526104548.000548000	0.12
14:08:24.798	1656526104798.000798000	0.12
14:08:25.064	1656526105064.000064000	0.12
14:08:25.395	1656526105395.000395000	0.12
14:08:25.644	1656526105644.000644000	0.12
14:08:25.900	1656526105900.000900000	0.12
14:08:26.152	1656526106152.000152000	0.12
14:08:26.414	1656526106414.000414000	0.12
14:08:26.664	1656526106664.000664000	0.12
14:08:26.914	1656526106914.000914000	0.12
14:08:27.167	1656526107167.000167000	0.12
14:08:27.423	1656526107423.000423000	0.12
14:08:27.677	1656526107677.000677000	0.12
14:08:27.933	1656526107933.000933000	0.12
14:08:28.193	1656526108193.000193000	0.12
14:08:28.448	1656526108448.000448000	0.12
14:08:28.703	1656526108703.000703000	0.12
14:08:28.950	1656526108950.000950000	0.12
14:08:29.208	1656526109208.000208000	0.12
14:08:29.462	1656526109462.000462000	0.12
14:08:29.718	1656526109718.000718000	0.12
14:08:29.975	1656526109975.000975000	0.12
14:08:30.228	1656526110228.000228000	0.12
14:08:30.487	1656526110487.000487000	0.12
14:08:30.738	1656526110738.000738000	0.12
14:08:30.998	1656526110998.000998000	0.13
14:08:31.252	1656526111252.000252000	0.12
14:08:31.505	1656526111505.000505000	0.12
14:08:31.757	1656526111757.000757000	0.12
14:08:32.012	1656526112012.000012000	0.12
14:08:32.267	1656526112267.000267000	0.12
14:08:32.528	1656526112528.000528000	0.12
14:08:32.777	1656526112777.000777000	0.12
14:08:33.032	1656526113032.000032000	0.12
14:08:33.294	1656526113294.000294000	0.12
14:08:33.543	1656526113543.000543000	0.12
14:08:33.798	1656526113798.000798000	0.12
14:08:34.053	1656526114053.000053000	0.12
14:08:34.307	1656526114307.000307000	0.12
14:08:34.564	1656526114564.000564000	0.12
14:08:34.818	1656526114818.000818000	0.12
14:08:35.078	1656526115078.000078000	0.12
14:08:35.327	1656526115327.000327000	0.12
14:08:35.583	1656526115583.000583000	0.12
14:08:35.838	1656526115838.000838000	0.12
14:08:36.092	1656526116092.000092000	0.12
14:08:36.348	1656526116348.000348000	0.12
14:08:36.602	1656526116602.000602000	0.12
14:08:36.857	1656526116857.000857000	0.12
14:08:37.113	1656526117113.000113000	0.12
14:08:37.367	1656526117367.000367000	0.12
14:08:37.625	1656526117625.000625000	0.12
14:08:37.881	1656526117881.000881000	0.12
14:08:38.132	1656526118132.000132000	0.12
14:08:38.387	1656526118387.000387000	0.12
14:08:38.644	1656526118644.000644000	0.12
14:08:38.904	1656526118904.000904000	0.12
14:08:39.156	1656526119156.000156000	0.12
14:08:39.410	1656526119410.000410000	0.12
14:08:39.663	1656526119663.000663000	0.12
14:08:39.915	1656526119915.000915000	0.12
14:08:40.173	1656526120173.000173000	0.12
14:08:40.431	1656526120431.000431000	0.12
14:08:40.688	1656526120688.000688000	0.12
14:08:40.939	1656526120939.000939000	0.12
14:08:41.193	1656526121193.000193000	0.12
14:08:41.453	1656526121453.000453000	0.12
14:08:41.704	1656526121704.000704000	0.12
14:08:41.958	1656526121958.000958000	0.12
14:08:42.213	1656526122213.000213000	0.12
14:08:42.468	1656526122468.000468000	0.13
14:08:42.728	1656526122728.000728000	0.12