Data from Control_Units14_3.txt Node
Standard Time	Epoch Time	Value
HH:MM:SS:000	(msec since 01/01/1900)
Spectrometer: FLMT01689
Trigger mode: 0
Integration Time (sec): 8.500000E-2
Scans to average: 3
Electric dark correction enabled: true
Nonlinearity correction enabled: false
Boxcar width: 3
XAxis mode: Time
Number of Pixels in Spectrum: 3648
>>>>>Begin Spectral Data<<<<<
13:13:08.912	1656522788912.000912000	0.12
13:13:09.166	1656522789166.000166000	0.12
13:13:09.420	1656522789420.000420000	0.12
13:13:09.676	1656522789676.000676000	0.12
13:13:09.931	1656522789931.000931000	0.12
13:13:10.185	1656522790185.000185000	0.12
13:13:10.440	1656522790440.000440000	0.12
13:13:10.696	1656522790696.000696000	0.12
13:13:10.951	1656522790951.000951000	0.12
13:13:11.206	1656522791206.000206000	0.12
13:13:11.461	1656522791461.000461000	0.12
13:13:11.716	1656522791716.000716000	0.12
13:13:11.971	1656522791971.000971000	0.12
13:13:12.228	1656522792228.000228000	0.12
13:13:12.480	1656522792480.000480000	0.12
13:13:12.735	1656522792735.000735000	0.12
13:13:12.991	1656522792991.000991000	0.12
13:13:13.246	1656522793246.000246000	0.14
13:13:13.501	1656522793501.000501000	0.12
13:13:13.755	1656522793755.000755000	0.12
13:13:14.011	1656522794011.000011000	0.12
13:13:14.266	1656522794266.000266000	0.12
13:13:14.520	1656522794520.000520000	0.12
13:13:14.775	1656522794775.000775000	0.12
13:13:15.030	1656522795030.000030000	0.12
13:13:15.285	1656522795285.000285000	0.12
13:13:15.540	1656522795540.000540000	0.12
13:13:15.796	1656522795796.000796000	0.12
13:13:16.051	1656522796051.000051000	0.12
13:13:16.306	1656522796306.000306000	0.12
13:13:16.566	1656522796566.000566000	0.12
13:13:16.815	1656522796815.000815000	0.12
13:13:17.070	1656522797070.000070000	0.12
13:13:17.325	1656522797325.000325000	0.12
13:13:17.581	1656522797581.000581000	0.12
13:13:17.836	1656522797836.000836000	0.12
13:13:18.091	1656522798091.000091000	0.12
13:13:18.346	1656522798346.000346000	0.12
13:13:18.600	1656522798600.000600000	0.12
13:13:18.855	1656522798855.000855000	0.12
13:13:19.113	1656522799113.000113000	0.12
13:13:19.365	1656522799365.000365000	0.12
13:13:19.621	1656522799621.000621000	0.12
13:13:19.875	1656522799875.000875000	0.12
13:13:20.131	1656522800131.000131000	0.12
13:13:20.385	1656522800385.000385000	0.12
13:13:20.639	1656522800639.000639000	0.12
13:13:20.901	1656522800901.000901000	0.13
13:13:21.156	1656522801156.000156000	0.12
13:13:21.406	1656522801406.000406000	0.12
13:13:21.661	1656522801661.000661000	0.12
13:13:21.915	1656522801915.000915000	0.12
13:13:22.171	1656522802171.000171000	0.12
13:13:22.426	1656522802426.000426000	0.12
13:13:22.681	1656522802681.000681000	0.12
13:13:22.936	1656522802936.000936000	0.12
13:13:23.190	1656522803190.000190000	0.12
13:13:23.445	1656522803445.000445000	0.12
13:13:23.701	1656522803701.000701000	0.12
13:13:23.955	1656522803955.000955000	0.12
13:13:24.216	1656522804216.000216000	0.12
13:13:24.466	1656522804466.000466000	0.12
13:13:24.720	1656522804720.000720000	0.12
13:13:24.975	1656522804975.000975000	0.12
13:13:25.230	1656522805230.000230000	0.13
13:13:25.485	1656522805485.000485000	0.12
13:13:25.740	1656522805740.000740000	0.13
13:13:25.996	1656522805996.000996000	0.12
13:13:26.253	1656522806253.000253000	0.12
13:13:26.505	1656522806505.000505000	0.12
13:13:26.761	1656522806761.000761000	0.12
13:13:27.015	1656522807015.000015000	0.12
13:13:27.271	1656522807271.000271000	0.12
13:13:27.525	1656522807525.000525000	0.13
13:13:27.780	1656522807780.000780000	0.13
13:13:28.035	1656522808035.000035000	0.15
13:13:28.295	1656522808295.000295000	0.12
13:13:28.545	1656522808545.000545000	0.12
13:13:28.800	1656522808800.000800000	0.12
13:13:29.056	1656522809056.000056000	0.12
13:13:29.310	1656522809310.000310000	0.12
13:13:29.566	1656522809566.000566000	0.12
13:13:29.824	1656522809824.000824000	0.12
13:13:30.076	1656522810076.000076000	0.12
13:13:30.333	1656522810333.000333000	0.12
13:13:30.586	1656522810586.000586000	0.12
13:13:30.840	1656522810840.000840000	0.12
13:13:31.096	1656522811096.000096000	0.12
13:13:31.351	1656522811351.000351000	0.12
13:13:31.606	1656522811606.000606000	0.12
13:13:31.860	1656522811860.000860000	0.12
13:13:32.114	1656522812114.000114000	0.12
13:13:32.368	1656522812368.000368000	0.12
13:13:32.626	1656522812626.000626000	0.12
13:13:32.881	1656522812881.000881000	0.12
13:13:33.136	1656522813136.000136000	0.12
13:13:33.390	1656522813390.000390000	0.12
13:13:33.645	1656522813645.000645000	0.12
13:13:33.901	1656522813901.000901000	0.12
13:13:34.161	1656522814161.000161000	0.12
13:13:34.410	1656522814410.000410000	0.12
13:13:34.665	1656522814665.000665000	0.12
13:13:34.920	1656522814920.000920000	0.12
13:13:35.175	1656522815175.000175000	0.12
13:13:35.431	1656522815431.000431000	0.12
13:13:35.686	1656522815686.000686000	0.12
13:13:35.940	1656522815940.000940000	0.12
13:13:36.194	1656522816194.000194000	0.12
13:13:36.450	1656522816450.000450000	0.12
13:13:36.705	1656522816705.000705000	0.13
13:13:36.965	1656522816965.000965000	0.12
13:13:37.216	1656522817216.000216000	0.12
13:13:37.471	1656522817471.000471000	0.12
13:13:37.726	1656522817726.000726000	0.12
13:13:37.981	1656522817981.000981000	0.12
13:13:38.235	1656522818235.000235000	0.12
13:13:38.493	1656522818493.000493000	0.13
13:13:38.745	1656522818745.000745000	0.13
13:13:39.000	1656522819000.000000000	0.12
13:13:39.256	1656522819256.000256000	0.12
13:13:39.510	1656522819510.000510000	0.12
13:13:39.766	1656522819766.000766000	0.13
13:13:40.023	1656522820023.000023000	0.12
13:13:40.276	1656522820276.000276000	0.12
13:13:40.532	1656522820532.000532000	0.12
13:13:40.785	1656522820785.000785000	0.12
13:13:41.041	1656522821041.000041000	0.12
13:13:41.296	1656522821296.000296000	0.12
13:13:41.550	1656522821550.000550000	0.12
13:13:41.805	1656522821805.000805000	0.13
13:13:42.061	1656522822061.000061000	0.12
13:13:42.315	1656522822315.000315000	0.12
13:13:42.571	1656522822571.000571000	0.12
13:13:42.826	1656522822826.000826000	0.13
13:13:43.080	1656522823080.000080000	0.12
13:13:43.339	1656522823339.000339000	0.12
13:13:43.590	1656522823590.000590000	0.12
13:13:43.845	1656522823845.000845000	0.13
13:13:44.100	1656522824100.000100000	0.12
13:13:44.356	1656522824356.000356000	0.12